Index of pulse,Tpi,Tpp,Tsys,Tdia,Tsp,Tdp,deltaT,Tsw10,Tsw25,Tsw33,Tsw50,Tsw66,Tsw75,Tsw90,Tdw10,Tdw25,Tdw33,Tdw50,Tdw66,Tdw75,Tdw90,Tpw10,Tpw25,Tpw33,Tpw50,Tpw66,Tpw75,Tpw90,Asp,Adn,Adp,Aoff,AUCpi,AUCsys,AUCdia
1,0.6,0.608,0.336,0.22399999999999998,0.152,0.376,0.224,0.096,0.08,0.072,0.055999999999999994,0.048,0.039999999999999994,0.023999999999999994,0.376,0.208,0.152,0.11200000000000002,0.08000000000000002,0.07200000000000001,0.04000000000000001,0.472,0.288,0.22399999999999998,0.168,0.128,0.112,0.064,0.9531066407115568,-0.32378943900945056,-0.638868561087458,-0.778618772578824,-1.2009915160048332,-0.1649269687931307,-1.0360645472117025
2,0.592,0.5840000000000001,0.328,0.16799999999999998,0.16000000000000003,0.424,0.26399999999999996,0.12,0.09599999999999997,0.08799999999999997,0.07200000000000006,0.05600000000000005,0.04800000000000004,0.03200000000000003,0.3679999999999999,0.264,0.11199999999999999,0.08799999999999997,0.06399999999999995,0.05599999999999994,0.03200000000000003,0.4879999999999999,0.36,0.19999999999999996,0.16000000000000003,0.12,0.10399999999999998,0.06400000000000006,1.4267406995515524,0.33508481094577247,0.09772472973699164,0.09220407998056213,-1.634858870077495,1.0184599102707559,-2.653318780348251
3,0.5920000000000001,0.5999999999999999,0.36,0.20000000000000007,0.15200000000000014,0.392,0.23999999999999988,0.1120000000000001,0.09600000000000009,0.08800000000000008,0.07200000000000006,0.05600000000000005,0.04800000000000004,0.03200000000000003,0.3599999999999999,0.15999999999999992,0.1359999999999999,0.09599999999999986,0.07199999999999984,0.06399999999999983,0.039999999999999813,0.472,0.256,0.22399999999999998,0.16799999999999993,0.1279999999999999,0.11199999999999988,0.07199999999999984,1.5673094283991795,0.3378154842446801,0.04901685225501762,-0.01161404455843118,0.6214867483169103,1.6174767440565487,-0.9959899957396384
4,0.5999999999999999,0.6000000000000001,0.336,0.16799999999999987,0.15999999999999992,0.432,0.2720000000000001,0.11199999999999988,0.09599999999999986,0.08799999999999986,0.07199999999999984,0.05600000000000005,0.04800000000000004,0.03200000000000003,0.3599999999999999,0.1280000000000001,0.1120000000000001,0.08800000000000008,0.06400000000000006,0.05600000000000005,0.03200000000000003,0.47199999999999975,0.22399999999999998,0.19999999999999996,0.15999999999999992,0.1200000000000001,0.10400000000000009,0.06400000000000006,1.4939875020852003,0.28988754691916996,0.08274908800940439,0.07760667142738364,-2.7249780516688284,0.4605456573460595,-3.185523709014888
5,0.5920000000000001,0.5920000000000001,0.344,0.20800000000000007,0.16000000000000014,0.384,0.22399999999999987,0.1120000000000001,0.09600000000000009,0.08800000000000008,0.07200000000000006,0.05600000000000005,0.04800000000000004,0.03200000000000003,0.35199999999999987,0.14400000000000013,0.1200000000000001,0.09600000000000009,0.07200000000000006,0.05600000000000005,0.03200000000000003,0.46399999999999997,0.2400000000000002,0.20800000000000018,0.16800000000000015,0.1280000000000001,0.10400000000000009,0.06400000000000006,1.4240950678879631,0.1960182638595147,-0.036259012476209496,-0.11191371126142702,2.45275243931663,2.2473106837798107,0.20544175553681931
6,0.6000000000000001,0.5920000000000001,0.344,0.19200000000000012,0.16000000000000014,0.408,0.24799999999999983,0.1200000000000001,0.09600000000000009,0.08800000000000008,0.07200000000000006,0.05600000000000005,0.04800000000000004,0.03200000000000003,0.3759999999999999,0.21599999999999975,0.12799999999999967,0.09600000000000009,0.07200000000000006,0.06400000000000006,0.03200000000000003,0.496,0.31199999999999983,0.21599999999999975,0.16800000000000015,0.1280000000000001,0.1120000000000001,0.06400000000000006,1.579350556056038,0.4001143835120073,0.08813938346457983,0.03440258802743279,-1.3280897648314236,0.8728899940898901,-2.2009797589213136
7,0.5840000000000001,0.6000000000000001,0.344,0.1760000000000001,0.15200000000000014,0.408,0.25599999999999984,0.1120000000000001,0.09600000000000009,0.08800000000000008,0.07200000000000006,0.05600000000000005,0.04800000000000004,0.03200000000000003,0.35199999999999987,0.13599999999999968,0.11999999999999966,0.09599999999999964,0.07199999999999962,0.055999999999999606,0.031999999999999584,0.46399999999999997,0.23199999999999976,0.20799999999999974,0.1679999999999997,0.12799999999999967,0.10399999999999965,0.06399999999999961,1.4823700743259831,0.24457939940588058,0.041520190620582265,0.02580027572184218,-1.9624666582594015,0.6191956373084649,-2.5816622955678663
8,0.6159999999999997,0.5999999999999996,0.352,0.17599999999999966,0.16800000000000015,0.44,0.27199999999999985,0.1200000000000001,0.09600000000000009,0.08800000000000008,0.07200000000000006,0.05600000000000005,0.04800000000000004,0.03200000000000003,0.37599999999999945,0.13600000000000012,0.1200000000000001,0.09600000000000009,0.07200000000000006,0.05600000000000005,0.03200000000000003,0.49599999999999955,0.2320000000000002,0.20800000000000018,0.16800000000000015,0.1280000000000001,0.10400000000000009,0.06400000000000006,1.5039015354214225,0.3162434712403175,0.07361565076472926,0.05994075505660551,-6.151700860143246,-1.1833304675168752,-4.968370392626371
9,0.5840000000000005,0.5919999999999996,0.344,0.16800000000000054,0.15200000000000014,0.416,0.26399999999999985,0.1120000000000001,0.08800000000000008,0.08000000000000007,0.06400000000000006,0.05600000000000005,0.040000000000000036,0.02400000000000002,0.3600000000000003,0.14400000000000013,0.1200000000000001,0.09600000000000009,0.07200000000000006,0.06400000000000006,0.040000000000000036,0.4720000000000004,0.2320000000000002,0.20000000000000018,0.16000000000000014,0.1280000000000001,0.10400000000000009,0.06400000000000006,1.260484548431013,0.2192063763442746,-0.006610683246110305,-0.011562587669925739,0.9219792290114288,1.7132133367692421,-0.7912341077578133
10,0.5919999999999996,0.5920000000000005,0.344,0.18399999999999966,0.15999999999999925,0.408,0.24800000000000072,0.11199999999999921,0.0959999999999992,0.08799999999999919,0.07199999999999918,0.05599999999999916,0.047999999999999154,0.023999999999999133,0.3680000000000003,0.15200000000000014,0.1280000000000001,0.09600000000000009,0.07200000000000006,0.06400000000000006,0.040000000000000036,0.47999999999999954,0.24799999999999933,0.2159999999999993,0.16799999999999926,0.12799999999999923,0.11199999999999921,0.06399999999999917,1.2995198552831098,0.29970643364110566,0.04584992085687045,0.011974077637287528,-1.001701820195497,0.8827279179949163,-1.8844297381904134
11,0.5999999999999996,0.6079999999999997,0.352,0.17599999999999966,0.16000000000000014,0.424,0.26399999999999985,0.1120000000000001,0.09600000000000009,0.08800000000000008,0.07200000000000006,0.05600000000000005,0.04800000000000004,0.02400000000000002,0.3680000000000003,0.14400000000000013,0.1280000000000001,0.09600000000000009,0.07200000000000006,0.06400000000000006,0.040000000000000036,0.4800000000000004,0.2400000000000002,0.2160000000000002,0.16800000000000015,0.1280000000000001,0.1120000000000001,0.06400000000000006,1.327231796491358,0.22525543836476578,-0.02228732873963757,-0.0356878934244641,2.6928393999283595,2.4671265218273715,0.22571287810098806
12,0.6080000000000005,0.6000000000000005,0.36,0.18400000000000055,0.16800000000000015,0.424,0.25599999999999984,0.1200000000000001,0.09600000000000009,0.08800000000000008,0.07200000000000006,0.06400000000000006,0.04800000000000004,0.03200000000000003,0.3600000000000003,0.15200000000000014,0.1280000000000001,0.09600000000000009,0.07200000000000006,0.05600000000000005,0.03200000000000003,0.4800000000000004,0.24800000000000022,0.2160000000000002,0.16800000000000015,0.13600000000000012,0.10400000000000009,0.06400000000000006,1.3613361337236962,0.26062814229213715,0.005727106592955722,-0.014650378141138287,1.4578421620019621,1.937543330265579,-0.47970116826361675
13,0.5919999999999996,0.5919999999999996,0.344,0.17599999999999966,0.16000000000000014,0.416,0.25599999999999984,0.1120000000000001,0.09600000000000009,0.08800000000000008,0.07200000000000006,0.05600000000000005,0.04800000000000004,0.03200000000000003,0.35999999999999943,0.14400000000000013,0.1200000000000001,0.09600000000000009,0.07200000000000006,0.05600000000000005,0.03200000000000003,0.47199999999999953,0.2400000000000002,0.20800000000000018,0.16800000000000015,0.1280000000000001,0.10400000000000009,0.06400000000000006,1.5215439450787585,0.27227593316897103,-0.019411944570701778,-0.03541915310147764,2.9274829790318746,2.5588959303671297,0.3685870486647449
14,0.5919999999999996,0.5919999999999996,0.344,0.17599999999999966,0.16000000000000014,0.416,0.25599999999999984,0.1200000000000001,0.09600000000000009,0.08800000000000008,0.07200000000000006,0.05600000000000005,0.04800000000000004,0.03200000000000003,0.3600000000000003,0.15200000000000014,0.12799999999999923,0.0959999999999992,0.07200000000000006,0.05600000000000005,0.03200000000000003,0.4800000000000004,0.24800000000000022,0.2159999999999993,0.16799999999999926,0.1280000000000001,0.10400000000000009,0.06400000000000006,1.527770470724491,0.28336031661598815,-0.0320197642578276,-0.05017528928386994,3.6825992966113823,2.8884794426650746,0.7941198539463077
15,0.5920000000000005,0.5999999999999996,0.36,0.2000000000000005,0.16000000000000014,0.392,0.23199999999999987,0.1120000000000001,0.09600000000000009,0.08799999999999919,0.07199999999999918,0.05599999999999916,0.04800000000000004,0.03200000000000003,0.3520000000000003,0.15200000000000102,0.1280000000000001,0.09600000000000009,0.07200000000000095,0.06400000000000006,0.040000000000000924,0.4640000000000004,0.2480000000000011,0.2159999999999993,0.16799999999999926,0.1280000000000001,0.1120000000000001,0.07200000000000095,1.6551338587124338,0.35695796874803626,0.058791523315125604,0.0157247452944852,-2.2828767827454004,0.32129850133027676,-2.6041752840756773
16,0.6159999999999997,0.6080000000000005,0.36,0.17599999999999966,0.16799999999999926,0.44,0.27200000000000074,0.11999999999999922,0.09600000000000009,0.08799999999999919,0.07199999999999918,0.05599999999999916,0.04800000000000004,0.023999999999999133,0.3680000000000003,0.14400000000000013,0.1280000000000001,0.09600000000000009,0.07200000000000095,0.06400000000000006,0.040000000000000924,0.48799999999999955,0.2400000000000002,0.2159999999999993,0.16799999999999926,0.1280000000000001,0.1120000000000001,0.06400000000000006,1.6162857162666335,0.3420920577755732,0.051122912105873386,0.03908190956572588,-11.916456033564003,-3.9329658367644336,-7.98349019679957
17,0.5999999999999996,0.5999999999999996,0.336,0.17599999999999966,0.16000000000000014,0.424,0.26399999999999985,0.1120000000000001,0.09600000000000009,0.08799999999999919,0.07199999999999918,0.05599999999999916,0.04800000000000004,0.023999999999999133,0.3680000000000003,0.2640000000000011,0.120000000000001,0.09600000000000009,0.07200000000000095,0.05600000000000094,0.03200000000000003,0.4800000000000004,0.3600000000000012,0.20800000000000018,0.16799999999999926,0.1280000000000001,0.10400000000000098,0.05599999999999916,1.5386469906125746,0.2949137734386146,0.009189049161354435,-0.010063665018152035,1.4594945963458976,1.890095415690214,-0.4306008193443165
18,0.5920000000000005,0.5920000000000005,0.344,0.16800000000000054,0.16000000000000014,0.424,0.26399999999999985,0.1120000000000001,0.09600000000000009,0.08799999999999919,0.07199999999999918,0.05599999999999916,0.04800000000000004,0.03200000000000003,0.3600000000000012,0.14400000000000013,0.120000000000001,0.09600000000000009,0.07200000000000095,0.05600000000000094,0.03200000000000003,0.4720000000000013,0.2400000000000002,0.20800000000000018,0.16799999999999926,0.1280000000000001,0.10400000000000098,0.06400000000000006,1.5569803861457165,0.2753086629695687,-0.028358850274099234,-0.0342001134429617,3.453340688188882,2.8128735748557676,0.6404671133331146
19,0.5999999999999996,0.5999999999999996,0.352,0.19199999999999967,0.16000000000000014,0.408,0.24799999999999983,0.11999999999999922,0.09600000000000009,0.08799999999999919,0.07199999999999918,0.05599999999999916,0.04800000000000004,0.03200000000000003,0.3680000000000003,0.16000000000000014,0.1280000000000001,0.09600000000000009,0.07200000000000095,0.06400000000000006,0.040000000000000924,0.48799999999999955,0.2560000000000002,0.2159999999999993,0.16799999999999926,0.1280000000000001,0.1120000000000001,0.07200000000000095,1.6512175975682406,0.3633149526360426,0.04335488180297942,-0.01041612741904463,1.666667931567429,2.059873937674059,-0.3932060061066298
20,0.6080000000000005,0.6080000000000005,0.36,0.16800000000000054,0.16000000000000014,0.44,0.27999999999999986,0.1120000000000001,0.09600000000000009,0.08799999999999919,0.07199999999999918,0.05599999999999916,0.04800000000000004,0.023999999999999133,0.3520000000000003,0.136000000000001,0.120000000000001,0.09600000000000009,0.07200000000000095,0.06400000000000006,0.040000000000000924,0.4640000000000004,0.2320000000000011,0.20800000000000018,0.16799999999999926,0.1280000000000001,0.1120000000000001,0.06400000000000006,1.6015835498604605,0.32118620213036697,0.10231888998604743,0.09865212804740714,19.06190784132947,9.81654011479851,9.245367726530962
21,0.6159999999999997,0.6080000000000005,0.344,0.19199999999999967,0.16000000000000014,0.424,0.26399999999999985,0.1120000000000001,0.08800000000000097,0.08000000000000007,0.06400000000000006,0.05600000000000094,0.04800000000000004,0.02400000000000091,0.39199999999999946,0.2240000000000002,0.1280000000000001,0.09600000000000009,0.07199999999999918,0.06400000000000006,0.03999999999999915,0.5039999999999996,0.31200000000000117,0.20800000000000018,0.16000000000000014,0.1280000000000001,0.1120000000000001,0.06400000000000006,1.526878934773018,0.2803845900949108,-0.02111895653199264,-0.07893803037164498,5.694587265278614,3.633312309106912,2.0612749561717014
22,0.5760000000000005,0.5919999999999987,0.328,0.1760000000000005,0.15200000000000102,0.4,0.247999999999999,0.1120000000000001,0.09600000000000009,0.08800000000000097,0.07200000000000095,0.05600000000000094,0.04800000000000004,0.03200000000000003,0.35199999999999854,0.27200000000000024,0.11999999999999922,0.08799999999999919,0.06400000000000006,0.05599999999999916,0.03200000000000003,0.46399999999999864,0.3680000000000003,0.20800000000000018,0.16000000000000014,0.120000000000001,0.1039999999999992,0.06400000000000006,1.5122582337980508,0.3331038239109253,0.01621560552245993,-0.003828951360160704,0.7817018137808271,1.691171077826452,-0.9094692640456248
23,0.5999999999999996,0.6000000000000014,0.36,0.19999999999999962,0.16799999999999926,0.4,0.23200000000000076,0.11999999999999922,0.09600000000000009,0.08799999999999919,0.07199999999999918,0.06400000000000006,0.05599999999999916,0.03200000000000003,0.3520000000000003,0.15200000000000102,0.1280000000000001,0.09600000000000009,0.07200000000000095,0.05600000000000094,0.03200000000000003,0.47199999999999953,0.2480000000000011,0.2159999999999993,0.16799999999999926,0.136000000000001,0.1120000000000001,0.06400000000000006,1.6799602584380096,0.3443320163819038,0.020865136421214348,-0.04122345778196401,4.365946033298496,3.305246427018496,1.0606996062799996
24,0.6159999999999997,0.6079999999999988,0.36,0.18399999999999966,0.16800000000000104,0.432,0.26399999999999896,0.120000000000001,0.09600000000000009,0.08800000000000097,0.07200000000000095,0.05600000000000094,0.04800000000000004,0.03200000000000003,0.35999999999999943,0.15199999999999925,0.12799999999999834,0.09599999999999831,0.07199999999999918,0.06400000000000006,0.03999999999999915,0.4800000000000004,0.24799999999999933,0.2159999999999993,0.16799999999999926,0.1280000000000001,0.1120000000000001,0.07199999999999918,1.6993847740996189,0.36114688011025914,0.06488880627124105,0.04576788114735797,-495.959886144172,-217.99473406484483,-277.96515207932714
25,0.6160000000000014,0.5999999999999996,0.336,0.18400000000000144,0.16000000000000014,0.432,0.27199999999999985,0.11999999999999922,0.09600000000000009,0.08799999999999919,0.07199999999999918,0.05599999999999916,0.04800000000000004,0.03200000000000003,0.38400000000000034,0.27200000000000024,0.120000000000001,0.09600000000000009,0.07200000000000095,0.05600000000000094,0.03200000000000003,0.5039999999999996,0.3680000000000003,0.20800000000000018,0.16799999999999926,0.1280000000000001,0.10400000000000098,0.06400000000000006,1.6142231207408637,0.3348732984830449,0.060737059709988606,0.028249843725288937,-16.83276658213204,-5.5081278322637806,-11.32463874986826
26,0.5839999999999996,0.6000000000000014,0.328,0.17599999999999966,0.14399999999999835,0.408,0.2640000000000016,0.1120000000000001,0.08799999999999919,0.08000000000000007,0.06400000000000006,0.05599999999999916,0.03999999999999915,0.023999999999999133,0.3680000000000003,0.14400000000000013,0.1280000000000001,0.09600000000000009,0.07200000000000095,0.06400000000000006,0.040000000000000924,0.4800000000000004,0.23199999999999932,0.20800000000000018,0.16000000000000014,0.1280000000000001,0.1039999999999992,0.06400000000000006,1.5311125614908119,0.26282980570712894,-0.02284298679100727,-0.04168719397865617,4.9406628361126845,3.4302427942188065,1.510420041893878
27,0.6079999999999988,0.5999999999999996,0.336,0.18399999999999878,0.16000000000000014,0.424,0.26399999999999985,0.120000000000001,0.09600000000000009,0.08800000000000097,0.07200000000000095,0.05600000000000094,0.04800000000000004,0.03200000000000003,0.37599999999999945,0.20800000000000018,0.1280000000000001,0.09600000000000009,0.07199999999999918,0.05599999999999916,0.03200000000000003,0.49600000000000044,0.30400000000000027,0.21600000000000108,0.16800000000000104,0.1280000000000001,0.1039999999999992,0.06400000000000006,1.6226715643181127,0.37579782155801833,0.022485085514242442,-0.011581100751918427,2.3282178750805094,2.274311298302277,0.053906576778232296
28,0.5920000000000023,0.6080000000000005,0.336,0.19200000000000228,0.15200000000000102,0.4,0.247999999999999,0.11200000000000188,0.09600000000000009,0.08800000000000097,0.07199999999999918,0.05600000000000094,0.04800000000000182,0.03200000000000003,0.35999999999999943,0.14399999999999835,0.120000000000001,0.09600000000000009,0.07199999999999918,0.05600000000000094,0.03200000000000003,0.4720000000000013,0.23999999999999844,0.20800000000000196,0.16799999999999926,0.1280000000000001,0.10400000000000276,0.06400000000000006,1.630645563060349,0.3304123995028451,0.06887110366537974,0.026340438522408638,-23.263956496342907,-8.217025932142977,-15.04693056419993
29,0.6159999999999997,0.5999999999999979,0.344,0.18399999999999966,0.16799999999999926,0.432,0.26400000000000073,0.120000000000001,0.09600000000000009,0.08800000000000097,0.07199999999999918,0.05600000000000094,0.04800000000000182,0.03200000000000003,0.36799999999999855,0.1280000000000001,0.11199999999999832,0.08799999999999741,0.06400000000000006,0.05600000000000094,0.03200000000000003,0.48799999999999955,0.2240000000000002,0.1999999999999993,0.1599999999999966,0.120000000000001,0.10400000000000276,0.06400000000000006,1.6083317551610459,0.3275073555170067,0.10684073392808136,0.08079159604761321,17.054052001961818,8.476087678702887,8.57796432325893
30,0.5999999999999979,0.6000000000000014,0.336,0.1839999999999979,0.15199999999999747,0.416,0.2640000000000025,0.11199999999999832,0.08799999999999741,0.0799999999999983,0.06400000000000006,0.055999999999997385,0.047999999999998266,0.023999999999997357,0.3680000000000021,0.13600000000000279,0.120000000000001,0.09600000000000009,0.07200000000000273,0.05600000000000094,0.03200000000000003,0.4800000000000004,0.2240000000000002,0.1999999999999993,0.16000000000000014,0.1280000000000001,0.1039999999999992,0.055999999999997385,1.4239644927462416,0.2070980858141951,0.001378651988012236,-0.025932771475041028,4.267846135798692,3.1111718740516965,1.1566742617469954
31,0.5920000000000023,0.5919999999999987,0.344,0.17600000000000232,0.15200000000000102,0.416,0.26399999999999896,0.11200000000000188,0.09600000000000009,0.08800000000000097,0.07199999999999918,0.05600000000000094,0.04800000000000182,0.03200000000000003,0.36799999999999855,0.14399999999999835,0.120000000000001,0.09600000000000009,0.07199999999999918,0.05600000000000094,0.03200000000000003,0.4800000000000004,0.23999999999999844,0.20800000000000196,0.16799999999999926,0.1280000000000001,0.10400000000000276,0.06400000000000006,1.485393703924631,0.2593466624877172,-0.004942691294984369,-0.02279086967168653,4.090009665233737,3.157668431504623,0.9323412337291139
32,0.5999999999999979,0.6080000000000005,0.344,0.1839999999999979,0.15199999999999747,0.416,0.2640000000000025,0.11199999999999832,0.08799999999999741,0.0799999999999983,0.06400000000000006,0.055999999999997385,0.047999999999998266,0.023999999999997357,0.35999999999999943,0.1440000000000019,0.1280000000000001,0.09600000000000009,0.07200000000000273,0.06400000000000006,0.0400000000000027,0.47199999999999775,0.23199999999999932,0.2079999999999984,0.16000000000000014,0.1280000000000001,0.11199999999999832,0.06400000000000006,1.5679558698927878,0.2510163649531034,0.006283007119849748,-0.016503541370251784,3.224132312812942,2.768075656623227,0.45605665618971525
33,0.6080000000000005,0.6159999999999997,0.344,0.19200000000000056,0.16000000000000014,0.416,0.25599999999999984,0.120000000000001,0.09600000000000009,0.08800000000000097,0.07199999999999918,0.05600000000000094,0.047999999999998266,0.03200000000000003,0.35999999999999943,0.13599999999999923,0.120000000000001,0.09600000000000009,0.07199999999999918,0.05600000000000094,0.03200000000000003,0.4800000000000004,0.23199999999999932,0.20800000000000196,0.16799999999999926,0.1280000000000001,0.1039999999999992,0.06400000000000006,1.6681218993578502,0.29564702974460705,0.03764972865049787,-0.0014363282227728424,0.6436276561306365,1.6446729618823954,-1.001045305751759
34,0.6080000000000005,0.5920000000000023,0.344,0.19200000000000056,0.16799999999999926,0.416,0.24800000000000072,0.11999999999999744,0.09600000000000009,0.08799999999999741,0.07199999999999918,0.055999999999997385,0.047999999999998266,0.03200000000000003,0.3520000000000003,0.13599999999999923,0.11200000000000188,0.08800000000000097,0.06400000000000006,0.05600000000000094,0.03200000000000003,0.47199999999999775,0.23199999999999932,0.1999999999999993,0.16000000000000014,0.11999999999999744,0.1039999999999992,0.06400000000000006,1.6120204904736264,0.29523357204958817,0.04143581152097808,0.004249492407609634,-1.293836261588388,0.7614911703267773,-2.055327431915165
35,0.5919999999999987,0.5999999999999979,0.344,0.16799999999999876,0.15200000000000102,0.424,0.27199999999999896,0.11200000000000188,0.08800000000000097,0.08000000000000185,0.07200000000000273,0.05600000000000094,0.04800000000000182,0.02400000000000091,0.36799999999999855,0.14399999999999835,0.1280000000000001,0.09600000000000009,0.0799999999999983,0.06400000000000006,0.03999999999999915,0.4800000000000004,0.23199999999999932,0.20800000000000196,0.1680000000000028,0.13599999999999923,0.11200000000000188,0.06400000000000006,1.5589878651384157,0.25755844958503205,0.0027162956005549743,-0.005945780029793402,1.707801265306983,2.1309051174577656,-0.4231038521507826
36,0.6000000000000014,0.6080000000000005,0.352,0.17600000000000143,0.16000000000000014,0.424,0.26399999999999985,0.11199999999999832,0.09600000000000009,0.08800000000000097,0.07199999999999918,0.05600000000000094,0.047999999999998266,0.03200000000000003,0.3680000000000021,0.1440000000000019,0.1280000000000001,0.09600000000000009,0.07199999999999918,0.06400000000000006,0.03999999999999915,0.4800000000000004,0.240000000000002,0.21600000000000108,0.16799999999999926,0.1280000000000001,0.11199999999999832,0.07199999999999918,1.6817694821781102,0.2733050986139681,-0.03542728094791103,-0.05722822865795241,6.2098326874306045,4.106591979966008,2.1032407074645967
37,0.6159999999999997,0.6080000000000005,0.352,0.18399999999999966,0.16799999999999926,0.432,0.26400000000000073,0.120000000000001,0.1039999999999992,0.09600000000000009,0.0799999999999983,0.06400000000000006,0.05600000000000094,0.03200000000000003,0.3760000000000012,0.1440000000000019,0.120000000000001,0.09600000000000009,0.07199999999999918,0.05600000000000094,0.03200000000000003,0.4960000000000022,0.2480000000000011,0.21600000000000108,0.17599999999999838,0.13599999999999923,0.11200000000000188,0.06400000000000006,1.6720906519540706,0.3537106025688724,0.049284201932379035,0.020119344248700655,-19.878888167252494,-7.283247718066769,-12.595640449185726
38,0.6000000000000014,0.6000000000000014,0.336,0.18400000000000144,0.16000000000000014,0.416,0.25599999999999984,0.120000000000001,0.1039999999999992,0.09600000000000009,0.08000000000000185,0.06400000000000006,0.05600000000000094,0.03200000000000003,0.3760000000000012,0.2560000000000002,0.120000000000001,0.08800000000000097,0.06400000000000006,0.05600000000000094,0.03200000000000003,0.4960000000000022,0.35999999999999943,0.21600000000000108,0.1680000000000028,0.1280000000000001,0.11200000000000188,0.06400000000000006,1.6522763141423806,0.35179931676698417,0.06408918231813165,0.0210151894787608,-27.040424440107476,-9.951608415983626,-17.08881602412385
39,0.5919999999999987,0.5919999999999987,0.344,0.17599999999999877,0.16000000000000014,0.416,0.25599999999999984,0.120000000000001,0.09600000000000009,0.08800000000000097,0.07200000000000273,0.05600000000000094,0.04800000000000182,0.03200000000000003,0.35199999999999676,0.14399999999999835,0.11999999999999744,0.09599999999999653,0.07199999999999918,0.055999999999997385,0.03200000000000003,0.47199999999999775,0.23999999999999844,0.2079999999999984,0.16799999999999926,0.1280000000000001,0.1039999999999992,0.06400000000000006,1.571488690780345,0.29663861076042136,-0.004525095181749372,-0.019251228727348857,4.081089885406487,3.1460479269618227,0.9350419584446645
40,0.5919999999999987,0.5999999999999979,0.352,0.17599999999999877,0.16000000000000014,0.416,0.25599999999999984,0.120000000000001,0.09600000000000009,0.08800000000000097,0.07199999999999918,0.05600000000000094,0.04800000000000182,0.03200000000000003,0.35999999999999943,0.14399999999999835,0.1280000000000001,0.09600000000000009,0.07199999999999918,0.06400000000000006,0.03999999999999915,0.4800000000000004,0.23999999999999844,0.21600000000000108,0.16799999999999926,0.1280000000000001,0.11200000000000188,0.07199999999999918,1.7083594245672558,0.30995568290494213,0.00339460923415269,-0.016405462954437566,3.74124755039255,3.0581945739998058,0.6830529763927444
41,0.5839999999999996,0.5840000000000032,0.336,0.16799999999999965,0.16799999999999926,0.416,0.24800000000000072,0.11999999999999744,0.09600000000000009,0.08799999999999741,0.07199999999999918,0.055999999999997385,0.047999999999998266,0.03200000000000003,0.3360000000000021,0.120000000000001,0.11200000000000188,0.08800000000000097,0.07200000000000273,0.05600000000000094,0.03200000000000003,0.4559999999999995,0.21600000000000108,0.1999999999999993,0.16000000000000014,0.1280000000000001,0.1039999999999992,0.06400000000000006,1.728120555833522,0.23744649581975574,0.05013318681854029,0.04389921863201984,24.59669250731797,11.99452654176076,12.602165965557212
42,0.6080000000000005,0.5999999999999979,0.336,0.20000000000000057,0.1680000000000028,0.408,0.23999999999999716,0.120000000000001,0.09600000000000009,0.08800000000000097,0.07200000000000273,0.05600000000000094,0.04800000000000182,0.03200000000000003,0.3839999999999968,0.3039999999999985,0.1280000000000001,0.09600000000000009,0.07199999999999918,0.055999999999997385,0.03200000000000003,0.5039999999999978,0.3999999999999986,0.21600000000000108,0.1680000000000028,0.1280000000000001,0.1039999999999992,0.06400000000000006,1.663449602500657,0.37658209781845964,0.037147208111239505,-0.06879652773837863,7.006100273817179,4.198098978767326,2.808001295049853
43,0.5920000000000023,0.5920000000000023,0.344,0.2000000000000023,0.16000000000000014,0.392,0.23199999999999987,0.120000000000001,0.09600000000000009,0.08800000000000097,0.07199999999999918,0.06400000000000006,0.05600000000000094,0.03200000000000003,0.3520000000000003,0.13599999999999923,0.120000000000001,0.08800000000000097,0.06400000000000006,0.05600000000000094,0.03200000000000003,0.4720000000000013,0.23199999999999932,0.20800000000000196,0.16000000000000014,0.1280000000000001,0.11200000000000188,0.06400000000000006,1.636835687449189,0.35796699945297306,0.10485925773353189,0.0459788335818927,19.665762671317285,9.96707385730677,9.698688814010515
44,0.5999999999999979,0.5999999999999979,0.344,0.1919999999999979,0.16000000000000014,0.408,0.24799999999999983,0.120000000000001,0.09600000000000009,0.08800000000000097,0.07200000000000273,0.06400000000000006,0.04800000000000182,0.03200000000000003,0.36799999999999855,0.15199999999999747,0.12799999999999656,0.09599999999999653,0.07199999999999918,0.06400000000000006,0.03200000000000003,0.48799999999999955,0.24799999999999756,0.21599999999999753,0.16799999999999926,0.13599999999999923,0.11200000000000188,0.06400000000000006,1.6367135865366493,0.38479429377619584,0.07581562139964304,0.027193394910092095,81.42721465962458,36.24944729997892,45.177767359645664
45,0.6000000000000014,0.6080000000000005,0.352,0.17600000000000143,0.16000000000000014,0.424,0.26399999999999985,0.120000000000001,0.1039999999999992,0.08800000000000097,0.07199999999999918,0.06400000000000006,0.05600000000000094,0.03200000000000003,0.35999999999999943,0.1440000000000019,0.120000000000001,0.09600000000000009,0.07199999999999918,0.05600000000000094,0.03200000000000003,0.4800000000000004,0.2480000000000011,0.20800000000000196,0.16799999999999926,0.13599999999999923,0.11200000000000188,0.06400000000000006,1.590637716881389,0.2714629852122258,0.0018749349663548243,-0.01338486014546858,3.567448192485343,2.9679311062623044,0.5995170862230386
46,0.6080000000000005,0.6000000000000014,0.336,0.17600000000000054,0.16799999999999926,0.432,0.26400000000000073,0.120000000000001,0.1039999999999992,0.09600000000000009,0.07199999999999918,0.06400000000000006,0.04800000000000182,0.03200000000000003,0.16000000000000014,0.26399999999999935,0.1039999999999992,0.0799999999999983,0.06400000000000006,0.047999999999998266,0.03200000000000003,0.28000000000000114,0.36799999999999855,0.1999999999999993,0.15199999999999747,0.1280000000000001,0.09600000000000009,0.06400000000000006,1.5510284739538518,0.2878471812522252,0.1700504275760103,0.15232913999234055,11.152153287304237,5.951789491131777,5.200363796172461
47,0.5919999999999987,0.5999999999999979,0.336,0.17599999999999877,0.16000000000000014,0.416,0.25599999999999984,0.120000000000001,0.09600000000000009,0.08800000000000097,0.07200000000000273,0.05600000000000094,0.04800000000000182,0.03200000000000003,0.35999999999999943,0.13599999999999923,0.11999999999999744,0.08799999999999741,0.07199999999999918,0.055999999999997385,0.03200000000000003,0.4800000000000004,0.23199999999999932,0.2079999999999984,0.16000000000000014,0.1280000000000001,0.1039999999999992,0.06400000000000006,1.3283373684267383,0.16810706258894548,-0.10464359672693768,-0.12350312828417898,8.34006304721736,4.902507284403562,3.4375557628137976
48,0.6080000000000005,0.6000000000000014,0.352,0.19200000000000056,0.16799999999999926,0.416,0.24800000000000072,0.120000000000001,0.1039999999999992,0.08800000000000097,0.07199999999999918,0.06400000000000006,0.047999999999998266,0.03200000000000003,0.3680000000000021,0.1440000000000019,0.1280000000000001,0.09600000000000009,0.07199999999999918,0.05600000000000094,0.03200000000000003,0.4880000000000031,0.2480000000000011,0.21600000000000108,0.16799999999999926,0.13599999999999923,0.1039999999999992,0.06400000000000006,1.4707528234861948,0.34308265056317316,0.08334068999776884,0.03561139781591044,21.41680207000708,10.766991583495097,10.649810486511983
49,0.5999999999999979,0.6080000000000005,0.344,0.17599999999999788,0.16000000000000014,0.424,0.26399999999999985,0.120000000000001,0.09600000000000009,0.08800000000000097,0.07199999999999918,0.06400000000000006,0.05600000000000094,0.03200000000000003,0.36799999999999855,0.13599999999999923,0.11999999999999744,0.08799999999999741,0.07199999999999918,0.05600000000000094,0.03200000000000003,0.48799999999999955,0.23199999999999932,0.2079999999999984,0.1599999999999966,0.13599999999999923,0.11200000000000188,0.06400000000000006,1.4111844494076722,0.25607273068350067,0.007589784862175042,-0.010370596063453308,3.4509259982141787,2.850880228359487,0.6000457698546917
50,0.6160000000000032,0.607999999999997,0.352,0.19200000000000322,0.1680000000000028,0.424,0.2559999999999972,0.120000000000001,0.09600000000000009,0.08800000000000097,0.07200000000000273,0.05600000000000094,0.04800000000000182,0.03200000000000003,0.36799999999999855,0.13599999999999923,0.11999999999999744,0.08799999999999741,0.07199999999999918,0.055999999999997385,0.03200000000000003,0.48799999999999955,0.23199999999999932,0.2079999999999984,0.16000000000000014,0.1280000000000001,0.1039999999999992,0.06400000000000006,1.5993686637008815,0.2931249420857051,0.025539734316643636,-0.01596089810280399,4.209395199177352,3.123302459255997,1.0860927399213547
51,0.5919999999999987,0.5920000000000023,0.336,0.18399999999999878,0.1599999999999966,0.408,0.24800000000000338,0.11999999999999744,0.09600000000000009,0.08799999999999741,0.07199999999999918,0.055999999999997385,0.047999999999998266,0.03200000000000003,0.3520000000000003,0.1280000000000001,0.11200000000000188,0.08800000000000097,0.06400000000000006,0.05600000000000094,0.03200000000000003,0.47199999999999775,0.2240000000000002,0.1999999999999993,0.16000000000000014,0.11999999999999744,0.1039999999999992,0.06400000000000006,1.5290932096207748,0.24298244323933255,0.004034852199422345,-0.021589404917101374,5.036632048033986,3.4922397734110926,1.544392274622893
52,0.6080000000000005,0.6080000000000005,0.352,0.19200000000000056,0.16000000000000014,0.416,0.25599999999999984,0.11200000000000188,0.09600000000000009,0.08800000000000097,0.07199999999999918,0.05600000000000094,0.04800000000000182,0.02400000000000091,0.37599999999999767,0.15200000000000102,0.1280000000000001,0.09600000000000009,0.07199999999999918,0.06400000000000006,0.03999999999999915,0.48799999999999955,0.2480000000000011,0.21600000000000108,0.16799999999999926,0.1280000000000001,0.11200000000000188,0.06400000000000006,1.6409479426299982,0.327843879795531,0.049369952131185946,-0.00018831218208914535,0.42051615450796975,1.496799930029527,-1.0762837755215573
53,0.6080000000000005,0.6080000000000005,0.352,0.20000000000000057,0.16000000000000014,0.408,0.24799999999999983,0.11200000000000188,0.09600000000000009,0.08800000000000097,0.07200000000000273,0.05600000000000094,0.04800000000000182,0.03200000000000003,0.34399999999999764,0.1280000000000001,0.11199999999999832,0.08799999999999741,0.07199999999999918,0.055999999999997385,0.03200000000000003,0.4559999999999995,0.2240000000000002,0.1999999999999993,0.16000000000000014,0.1280000000000001,0.1039999999999992,0.06400000000000006,1.6560381438368394,0.24889536014872016,0.05303857130493023,0.011710682325281274,-11.940706029928132,-3.8567663778879173,-8.083939652040215
54,0.6159999999999997,0.6080000000000005,0.352,0.18399999999999966,0.16000000000000014,0.432,0.27199999999999985,0.11200000000000188,0.09600000000000009,0.08800000000000097,0.07200000000000273,0.05600000000000094,0.04800000000000182,0.02400000000000091,0.36799999999999855,0.1439999999999948,0.120000000000001,0.09600000000000009,0.07199999999999918,0.05600000000000094,0.03200000000000003,0.4800000000000004,0.23999999999999488,0.20800000000000196,0.1680000000000028,0.1280000000000001,0.10400000000000276,0.05600000000000094,1.5532644009750398,0.3280990852506365,0.10365588853510277,0.08135562294255244,12.570855050689794,6.779599293686905,5.791255757002888
55,0.6000000000000014,0.607999999999997,0.336,0.19200000000000145,0.15200000000000102,0.408,0.25599999999999895,0.11200000000000188,0.08800000000000097,0.0800000000000054,0.06400000000000006,0.05600000000000449,0.03999999999999915,0.02400000000000091,0.367999999999995,0.14399999999999835,0.1280000000000001,0.09599999999999653,0.07199999999999562,0.06400000000000006,0.03999999999999915,0.4799999999999969,0.23199999999999932,0.2080000000000055,0.1599999999999966,0.1280000000000001,0.1039999999999992,0.06400000000000006,1.4204336688287915,0.22839328583100227,-0.020468053087771054,-0.06617981525172639,7.689431866462356,4.577729773652045,3.1117020928103107
56,0.5999999999999943,0.6000000000000014,0.336,0.18399999999999433,0.1599999999999966,0.416,0.2560000000000034,0.11200000000000188,0.09599999999999653,0.08800000000000097,0.07200000000000273,0.055999999999997385,0.04800000000000182,0.031999999999996476,0.3680000000000021,0.2560000000000002,0.11999999999999744,0.09600000000000364,0.07200000000000273,0.055999999999997385,0.03200000000000358,0.480000000000004,0.35199999999999676,0.2079999999999984,0.16800000000000637,0.1280000000000001,0.1039999999999992,0.06400000000000006,1.4656667101043928,0.2751987884560093,-0.006037060083946555,-0.04342022823524461,6.95225609356484,4.266411906124854,2.6858441874399857
57,0.6159999999999997,0.6159999999999997,0.352,0.20799999999999969,0.1600000000000037,0.408,0.24799999999999628,0.11200000000000188,0.09600000000000364,0.08800000000000097,0.07200000000000273,0.055999999999997385,0.04800000000000182,0.02400000000000091,0.38400000000000034,0.240000000000002,0.13600000000000279,0.1039999999999992,0.0799999999999983,0.06400000000000006,0.03999999999999915,0.4960000000000022,0.3360000000000056,0.22400000000000375,0.17600000000000193,0.13599999999999568,0.11200000000000188,0.06400000000000006,1.7241270899822188,0.346654262726042,0.009025619858129885,-0.09341460195483353,7.965030554831191,4.785852978848689,3.179177575982502
58,0.6080000000000041,0.6159999999999997,0.344,0.1760000000000041,0.1600000000000037,0.432,0.2719999999999963,0.11999999999999744,0.09600000000000364,0.08800000000000097,0.07200000000000273,0.055999999999997385,0.04800000000000182,0.03200000000000358,0.3680000000000021,0.13600000000000279,0.11999999999999744,0.08800000000000097,0.07200000000000273,0.055999999999997385,0.031999999999996476,0.48799999999999955,0.23200000000000642,0.2079999999999984,0.1600000000000037,0.1280000000000001,0.1039999999999992,0.06400000000000006,1.704043781600722,0.3934766209867919,0.1585139918018239,0.14219904652831428,11.114738809211012,6.080951723102674,5.033787086108338
59,0.6240000000000023,0.6159999999999997,0.344,0.20000000000000234,0.16799999999999926,0.424,0.2560000000000007,0.11999999999999744,0.09599999999999653,0.08800000000000097,0.07200000000000273,0.055999999999997385,0.04800000000000182,0.031999999999996476,0.38400000000000034,0.13600000000000279,0.11999999999999744,0.08800000000000097,0.07200000000000273,0.055999999999997385,0.031999999999996476,0.5039999999999978,0.23199999999999932,0.2079999999999984,0.1600000000000037,0.1280000000000001,0.1039999999999992,0.06399999999999295,1.610924719214694,0.30659573797763356,0.053846092061679895,-0.014214194456062978,4.330649997989154,3.0873607110770585,1.2432892869120953
60,0.5999999999999943,0.6000000000000014,0.344,0.19199999999999434,0.1599999999999966,0.408,0.24800000000000338,0.11999999999999744,0.09599999999999653,0.08800000000000097,0.07200000000000273,0.055999999999997385,0.04800000000000182,0.031999999999996476,0.35999999999999943,0.13600000000000279,0.11999999999999744,0.08800000000000097,0.06400000000000006,0.055999999999997385,0.03200000000000358,0.4799999999999969,0.23199999999999932,0.2079999999999984,0.1600000000000037,0.11999999999999744,0.1039999999999992,0.06400000000000006,1.4668366999183975,0.29008073136765916,0.05550606975837413,0.018271308140146103,67.75064609667383,30.813443426822317,36.937202669851516
61,0.6080000000000041,0.607999999999997,0.344,0.20000000000000412,0.1600000000000037,0.408,0.24799999999999628,0.12000000000000455,0.09600000000000364,0.08800000000000097,0.07200000000000273,0.05600000000000449,0.04800000000000182,0.03200000000000358,0.3680000000000021,0.14399999999999835,0.1280000000000001,0.09599999999999653,0.07199999999999562,0.055999999999997385,0.031999999999996476,0.48800000000000665,0.240000000000002,0.21600000000000108,0.16799999999999926,0.1280000000000001,0.1039999999999992,0.06400000000000006,1.5118686560466745,0.30303136053451446,0.05132962854032441,-0.006751161290471375,2.988711246489426,2.6343237384009046,0.3543875080885215
62,0.6159999999999997,0.6159999999999997,0.36,0.21599999999999964,0.1599999999999966,0.4,0.24000000000000343,0.11999999999999744,0.09599999999999653,0.08800000000000097,0.07199999999999562,0.055999999999997385,0.047999999999994714,0.031999999999996476,0.35999999999999943,0.15200000000000102,0.1280000000000001,0.09600000000000364,0.07200000000000273,0.05600000000000449,0.03200000000000358,0.4799999999999969,0.24799999999999756,0.21600000000000108,0.16799999999999926,0.1280000000000001,0.1039999999999992,0.06400000000000006,1.5562901408870742,0.2792017296383824,0.03603935029580341,-0.03803474480599511,6.705750720243652,4.337068522281893,2.3686821979617596
63,0.6240000000000023,0.6240000000000023,0.344,0.19200000000000234,0.1599999999999966,0.432,0.2720000000000034,0.11999999999999744,0.09599999999999653,0.08800000000000097,0.07199999999999562,0.055999999999997385,0.047999999999994714,0.031999999999996476,0.38400000000000034,0.27200000000000557,0.1280000000000001,0.09600000000000364,0.07200000000000273,0.06400000000000006,0.03200000000000358,0.5039999999999978,0.3680000000000021,0.21600000000000108,0.16799999999999926,0.1280000000000001,0.11199999999999477,0.06400000000000006,1.5668781523186852,0.33655738682879577,0.07246725169445956,0.029457739035934294,22.091653737185815,10.447594660426976,11.64405907675884
64,0.6159999999999997,0.6159999999999997,0.336,0.19999999999999968,0.1599999999999966,0.416,0.2560000000000034,0.11999999999999744,0.09599999999999653,0.08800000000000097,0.07200000000000273,0.055999999999997385,0.04800000000000182,0.03200000000000358,0.38400000000000034,0.23199999999999932,0.11999999999999744,0.09599999999999653,0.07200000000000273,0.055999999999997385,0.031999999999996476,0.5039999999999978,0.32799999999999585,0.2079999999999984,0.16799999999999926,0.1280000000000001,0.1039999999999992,0.06400000000000006,1.585582742513538,0.3107106268221102,0.05276946165742541,-0.02648805834921919,6.050622497187743,3.788754827275643,2.2618676699121
65,0.5999999999999943,0.6000000000000014,0.344,0.18399999999999433,0.1599999999999966,0.416,0.2560000000000034,0.11200000000000188,0.09599999999999653,0.08800000000000097,0.07200000000000273,0.055999999999997385,0.04800000000000182,0.031999999999996476,0.3680000000000021,0.13600000000000279,0.11999999999999744,0.08800000000000097,0.07200000000000273,0.055999999999997385,0.03200000000000358,0.480000000000004,0.23199999999999932,0.2079999999999984,0.1600000000000037,0.1280000000000001,0.1039999999999992,0.06400000000000006,1.5530002571800074,0.28371360129681245,0.020455770484070435,-0.012163842177059458,4.229339213173651,3.16531183812482,1.0640273750488305
66,0.6159999999999997,0.6159999999999997,0.352,0.20799999999999969,0.1600000000000037,0.408,0.24799999999999628,0.12000000000000455,0.09600000000000364,0.08800000000000097,0.07200000000000273,0.05600000000000449,0.04800000000000182,0.03200000000000358,0.37599999999999767,0.1599999999999966,0.1280000000000001,0.09599999999999653,0.07199999999999562,0.06400000000000006,0.03999999999999915,0.4960000000000022,0.2560000000000002,0.21600000000000108,0.16799999999999926,0.1280000000000001,0.11200000000000188,0.07200000000000273,1.6691902693795964,0.3676694379110417,0.09063264932969262,0.002869350623833977,-1.5318235326006984,0.7006226766952113,-2.23244620929591
67,0.6240000000000023,0.6240000000000023,0.344,0.20000000000000234,0.1600000000000037,0.424,0.2639999999999963,0.11999999999999744,0.09600000000000364,0.08800000000000097,0.07200000000000273,0.06400000000000006,0.04800000000000182,0.03200000000000358,0.37599999999999767,0.13599999999999568,0.11999999999999744,0.08800000000000097,0.06400000000000006,0.055999999999997385,0.031999999999996476,0.4959999999999951,0.23199999999999932,0.2079999999999984,0.1600000000000037,0.1280000000000001,0.1039999999999992,0.06400000000000006,1.581473913963404,0.3095697103520698,0.07453624109222057,0.03207209087197194,19.20723292180762,9.239725230942325,9.967507690865295
68,0.6240000000000023,0.6239999999999952,0.344,0.19200000000000234,0.1600000000000037,0.432,0.2719999999999963,0.11200000000000188,0.09600000000000364,0.08800000000000097,0.07200000000000273,0.05600000000000449,0.04800000000000182,0.02400000000000091,0.37599999999999767,0.13599999999999568,0.11999999999999744,0.09599999999999653,0.07199999999999562,0.06400000000000006,0.031999999999996476,0.48799999999999955,0.23199999999999932,0.2079999999999984,0.16799999999999926,0.1280000000000001,0.11200000000000188,0.055999999999997385,1.6089745411990384,0.31268555692667954,0.08806908082580545,0.04950955870267826,14.37672157292535,7.286608492468734,7.090113080456615
69,0.607999999999997,0.6080000000000041,0.336,0.191999999999997,0.1599999999999966,0.416,0.2560000000000034,0.11999999999999744,0.09599999999999653,0.08800000000000097,0.07199999999999562,0.055999999999997385,0.04800000000000182,0.031999999999996476,0.3680000000000021,0.13600000000000279,0.12000000000000455,0.08800000000000097,0.06400000000000006,0.05600000000000449,0.03200000000000358,0.48799999999999955,0.23199999999999932,0.2080000000000055,0.1599999999999966,0.11999999999999744,0.10400000000000631,0.06400000000000006,1.4629474030623415,0.22951396391564216,0.009315195686023237,-0.04086525667154084,7.221612830641445,4.332364150192077,2.8892486804493682
70,0.6080000000000041,0.607999999999997,0.344,0.1920000000000041,0.1600000000000037,0.416,0.2559999999999963,0.11200000000000188,0.09600000000000364,0.08800000000000097,0.07200000000000273,0.05600000000000449,0.04800000000000182,0.03200000000000358,0.37599999999999767,0.14399999999999835,0.11999999999999744,0.09599999999999653,0.07199999999999562,0.055999999999997385,0.031999999999996476,0.48799999999999955,0.240000000000002,0.2079999999999984,0.16799999999999926,0.1280000000000001,0.1039999999999992,0.06400000000000006,1.4929531682562542,0.2902452351511454,0.041515226173946373,-0.007527928069552714,3.4576594235172324,2.8226424681028672,0.6350169554143652
71,0.6319999999999979,0.6319999999999979,0.352,0.23199999999999787,0.1599999999999966,0.4,0.24000000000000343,0.11999999999999744,0.09599999999999653,0.08800000000000097,0.07200000000000273,0.055999999999997385,0.04800000000000182,0.031999999999996476,0.392000000000003,0.2560000000000002,0.13600000000000279,0.1039999999999992,0.0799999999999983,0.06400000000000006,0.03999999999999915,0.5120000000000005,0.35199999999999676,0.22400000000000375,0.17600000000000193,0.13599999999999568,0.11200000000000188,0.07199999999999562,1.6040735090873697,0.3348605165013792,0.07337819304132098,-0.08147420527663385,8.186063788096497,4.776205529489222,3.409858258607275
72,0.607999999999997,0.6159999999999997,0.352,0.183999999999997,0.1599999999999966,0.424,0.2640000000000034,0.11199999999999477,0.09599999999999653,0.08799999999999386,0.07199999999999562,0.055999999999997385,0.047999999999994714,0.031999999999996476,0.3680000000000021,0.14400000000000546,0.12000000000000455,0.09600000000000364,0.07200000000000273,0.06400000000000006,0.03999999999999915,0.4799999999999969,0.240000000000002,0.2079999999999984,0.16799999999999926,0.1280000000000001,0.11199999999999477,0.07199999999999562,1.6265554613230888,0.40880757210518764,0.14752716205471506,0.12595487867819677,10.969361298516741,6.17821432030268,4.791146978214061
73,0.6400000000000006,0.6240000000000023,0.352,0.20800000000000057,0.16799999999999926,0.432,0.26400000000000073,0.11999999999999744,0.09599999999999653,0.08799999999999386,0.07199999999999562,0.055999999999997385,0.047999999999994714,0.031999999999996476,0.3760000000000048,0.13600000000000279,0.12000000000000455,0.08800000000000097,0.07200000000000273,0.05600000000000449,0.03200000000000358,0.4960000000000022,0.23199999999999932,0.2079999999999984,0.1599999999999966,0.1280000000000001,0.1039999999999992,0.06400000000000006,1.485490704134045,0.27626831266286805,0.09015792401272393,0.03264001337362882,17.415316283405737,8.58188406811197,8.833432215293767
74,0.6080000000000041,0.6080000000000041,0.336,0.1920000000000041,0.15200000000000102,0.416,0.26399999999999896,0.11200000000000188,0.08800000000000097,0.0799999999999983,0.06400000000000006,0.055999999999997385,0.04800000000000182,0.02400000000000091,0.37599999999999767,0.14399999999999835,0.11999999999999744,0.09600000000000364,0.07200000000000273,0.06400000000000006,0.03999999999999915,0.48799999999999955,0.23199999999999932,0.19999999999999574,0.1600000000000037,0.1280000000000001,0.11200000000000188,0.06400000000000006,1.4287528987233828,0.18765545974477282,-0.058159604996339376,-0.10420134481441473,8.647490820762071,4.927061538050908,3.720429282711163
75,0.607999999999997,0.6159999999999997,0.352,0.191999999999997,0.15200000000000102,0.416,0.26399999999999896,0.11200000000000188,0.09600000000000364,0.08800000000000097,0.07200000000000273,0.05600000000000449,0.04800000000000182,0.02400000000000091,0.38399999999999324,0.15199999999999392,0.13599999999999568,0.1039999999999992,0.0799999999999983,0.06400000000000006,0.03999999999999915,0.4959999999999951,0.24799999999999756,0.22399999999999665,0.17600000000000193,0.13600000000000279,0.11200000000000188,0.06400000000000006,1.5936636682403114,0.3325573342461016,0.054111360914382955,0.0013486674960456746,-0.7749261525474672,1.0441250288843342,-1.8190511814318016
76,0.6240000000000023,0.6239999999999952,0.368,0.23200000000000232,0.1600000000000037,0.392,0.23199999999999632,0.12000000000000455,0.09600000000000364,0.08800000000000097,0.07200000000000273,0.05600000000000449,0.04800000000000182,0.03200000000000358,0.38400000000000034,0.2560000000000002,0.14399999999999835,0.1039999999999992,0.0799999999999983,0.06400000000000006,0.03999999999999915,0.5040000000000049,0.35200000000000387,0.23199999999999932,0.17600000000000193,0.13600000000000279,0.11200000000000188,0.07200000000000273,1.6684780457224655,0.3149537493779721,0.02830405872555286,-0.13812241655277435,8.80049591608641,5.318483928349193,3.4820119877372173
77,0.6239999999999952,0.6240000000000023,0.352,0.19999999999999524,0.1599999999999966,0.424,0.2640000000000034,0.11999999999999744,0.09599999999999653,0.08800000000000097,0.07199999999999562,0.055999999999997385,0.04800000000000182,0.031999999999996476,0.3760000000000048,0.14399999999999835,0.12000000000000455,0.09600000000000364,0.07200000000000273,0.05600000000000449,0.03200000000000358,0.4960000000000022,0.23999999999999488,0.2080000000000055,0.16799999999999926,0.1280000000000001,0.10400000000000631,0.06400000000000006,1.8542865688299188,0.4495201108383323,0.18329126909146976,0.13825697658328917,10.98322057498855,6.016703543575955,4.966517031412596
78,0.632000000000005,0.6319999999999979,0.344,0.20800000000000501,0.1600000000000037,0.424,0.2639999999999963,0.11200000000000188,0.09600000000000364,0.08800000000000097,0.07200000000000273,0.055999999999997385,0.04800000000000182,0.03200000000000358,0.3919999999999959,0.14399999999999835,0.11999999999999744,0.09599999999999653,0.07200000000000273,0.055999999999997385,0.031999999999996476,0.5039999999999978,0.240000000000002,0.2079999999999984,0.16799999999999926,0.1280000000000001,0.1039999999999992,0.06400000000000006,1.7227610790070633,0.31364124846110153,0.08961676284504033,-0.0031530520306660703,1.853219921683904,2.072740257546242,-0.2195203358623381
79,0.607999999999997,0.6080000000000041,0.336,0.199999999999997,0.1599999999999966,0.408,0.24800000000000338,0.11200000000000188,0.09599999999999653,0.08800000000000097,0.07199999999999562,0.055999999999997385,0.04800000000000182,0.031999999999996476,0.35999999999999943,0.13600000000000279,0.12000000000000455,0.08800000000000097,0.07200000000000273,0.05600000000000449,0.03200000000000358,0.4720000000000013,0.23199999999999932,0.2080000000000055,0.1599999999999966,0.1280000000000001,0.10400000000000631,0.06400000000000006,1.6743960095705825,0.29424824290494495,0.012484228174069356,-0.044000048229380195,7.393299666799263,4.415021049850356,2.9782786169489066
80,0.6080000000000041,0.6159999999999997,0.352,0.20000000000000412,0.1600000000000037,0.408,0.24799999999999628,0.12000000000000455,0.1039999999999992,0.08800000000000097,0.0800000000000054,0.06400000000000006,0.05600000000000449,0.03200000000000358,0.37599999999999767,0.15199999999999392,0.1280000000000001,0.09599999999999653,0.07199999999999562,0.06400000000000006,0.031999999999996476,0.4960000000000022,0.2559999999999931,0.21600000000000108,0.17600000000000193,0.13599999999999568,0.12000000000000455,0.06400000000000006,1.6535450978835518,0.3834099437305911,0.11209992045534978,0.03942580275015073,14.592543686625055,7.744761421486229,6.847782265138826
81,0.6319999999999979,0.6319999999999979,0.36,0.23199999999999787,0.16799999999999926,0.4,0.23200000000000076,0.12000000000000455,0.09600000000000364,0.08800000000000097,0.07200000000000273,0.06400000000000006,0.04800000000000182,0.03200000000000358,0.38400000000000034,0.1599999999999966,0.13599999999999568,0.1039999999999992,0.0799999999999983,0.06400000000000006,0.031999999999996476,0.5040000000000049,0.2560000000000002,0.22399999999999665,0.17600000000000193,0.14399999999999835,0.11200000000000188,0.06400000000000006,1.674060237227713,0.3390614668523271,0.09402486886362704,-0.050819548713109786,7.648833012469186,4.649584423961636,2.99924858850755
82,0.6240000000000023,0.6240000000000023,0.352,0.20800000000000235,0.16799999999999926,0.416,0.24800000000000072,0.11999999999999744,0.09600000000000364,0.08800000000000097,0.07200000000000273,0.06400000000000006,0.04800000000000182,0.03200000000000358,0.3680000000000021,0.14399999999999835,0.11999999999999744,0.09599999999999653,0.07200000000000273,0.055999999999997385,0.031999999999996476,0.48799999999999955,0.240000000000002,0.2079999999999984,0.16799999999999926,0.13600000000000279,0.1039999999999992,0.06400000000000006,1.672011643110709,0.41283267915222066,0.1835033692813035,0.11378381036266605,11.046093516768815,6.053747036122125,4.99234648064669
83,0.6399999999999935,0.6400000000000006,0.344,0.20799999999999347,0.16799999999999926,0.432,0.26400000000000073,0.12000000000000455,0.09600000000000364,0.08800000000000097,0.07200000000000273,0.05600000000000449,0.04800000000000182,0.03200000000000358,0.367999999999995,0.1280000000000001,0.11199999999999477,0.08800000000000097,0.06400000000000006,0.055999999999997385,0.031999999999996476,0.48799999999999955,0.22400000000000375,0.19999999999999574,0.1600000000000037,0.12000000000000455,0.1039999999999992,0.06400000000000006,1.5430167640603882,0.25034292158767923,0.07603199055795062,0.0208136986153849,26.90664558967928,12.13639369077176,14.770251898907519
84,0.6160000000000068,0.607999999999997,0.352,0.19200000000000678,0.16800000000000637,0.424,0.2559999999999936,0.12000000000000455,0.09600000000000364,0.08800000000000097,0.07200000000000273,0.05600000000000449,0.04800000000000182,0.03200000000000358,0.367999999999995,0.13599999999999568,0.11999999999999744,0.08799999999999386,0.07199999999999562,0.055999999999997385,0.031999999999996476,0.48799999999999955,0.23199999999999932,0.2079999999999984,0.1599999999999966,0.1280000000000001,0.1039999999999992,0.06400000000000006,1.5237358554977194,0.22772390162867295,-0.02946614637034034,-0.07255007573275979,8.350373370042885,4.956754234963384,3.3936191350795006
85,0.6159999999999997,0.6159999999999997,0.352,0.21599999999999964,0.1599999999999966,0.4,0.24000000000000343,0.11999999999999744,0.09599999999999653,0.08800000000000097,0.07200000000000273,0.06400000000000006,0.04800000000000182,0.03200000000000358,0.37599999999999767,0.14399999999999835,0.1280000000000001,0.09599999999999653,0.07200000000000273,0.055999999999997385,0.031999999999996476,0.4959999999999951,0.23999999999999488,0.21600000000000108,0.16799999999999926,0.13600000000000279,0.1039999999999992,0.06400000000000006,1.6017343678746576,0.3162098218044276,0.07064683745495443,-0.021296158823726374,6.181389254498737,4.033256141661603,2.148133112837134
86,0.6319999999999979,0.6319999999999979,0.352,0.22399999999999792,0.1599999999999966,0.408,0.24800000000000338,0.11999999999999744,0.09599999999999653,0.08800000000000097,0.07200000000000273,0.055999999999997385,0.04800000000000182,0.031999999999996476,0.38400000000000034,0.15200000000000102,0.1280000000000001,0.09600000000000364,0.07200000000000273,0.055999999999997385,0.03200000000000358,0.5039999999999978,0.24799999999999756,0.21600000000000108,0.16800000000000637,0.1280000000000001,0.1039999999999992,0.06400000000000006,1.6877661584239632,0.3379857672953391,0.09169236616422438,-0.02716224229565367,6.560955286972923,4.099577558849129,2.461377728123794
87,0.6240000000000023,0.6240000000000023,0.352,0.21600000000000236,0.1599999999999966,0.408,0.24800000000000338,0.11199999999999477,0.09599999999999653,0.08800000000000097,0.07199999999999562,0.055999999999997385,0.047999999999994714,0.031999999999996476,0.38400000000000034,0.1600000000000037,0.13600000000000279,0.1039999999999992,0.0800000000000054,0.06400000000000006,0.03999999999999915,0.4959999999999951,0.2560000000000002,0.22400000000000375,0.17599999999999483,0.13600000000000279,0.11199999999999477,0.07199999999999562,1.8068665096272503,0.36946064158488845,0.07841700929017947,-0.03936279565429579,7.252625598869265,4.442681158389962,2.8099444404793035
88,0.6319999999999979,0.6400000000000006,0.344,0.2079999999999979,0.1599999999999966,0.424,0.2640000000000034,0.11200000000000188,0.09599999999999653,0.08800000000000097,0.07200000000000273,0.055999999999997385,0.04800000000000182,0.02400000000000091,0.38400000000000034,0.13600000000000279,0.11999999999999744,0.09599999999999653,0.07200000000000273,0.06400000000000006,0.03999999999999915,0.4960000000000022,0.23199999999999932,0.2079999999999984,0.16799999999999926,0.1280000000000001,0.11200000000000188,0.06400000000000006,1.748242380240514,0.40684753698524634,0.1791584075319788,0.10922782943597731,11.116732316821256,5.867017803617589,5.249714513203667
89,0.6400000000000006,0.6400000000000006,0.352,0.19200000000000056,0.16799999999999926,0.448,0.28000000000000075,0.11200000000000188,0.08800000000000097,0.0799999999999983,0.06400000000000006,0.055999999999997385,0.03999999999999915,0.02400000000000091,0.38400000000000034,0.13600000000000279,0.11999999999999744,0.09599999999999653,0.07200000000000273,0.055999999999997385,0.03999999999999915,0.4960000000000022,0.22400000000000375,0.19999999999999574,0.1599999999999966,0.1280000000000001,0.09599999999999653,0.06400000000000006,1.662239725263616,0.2981192348230869,0.04516561394678309,0.01181480393668699,-68.39199328630927,-27.94265710009972,-40.44933618620955
90,0.6239999999999952,0.607999999999997,0.344,0.19999999999999524,0.16799999999999926,0.424,0.2560000000000007,0.11200000000000188,0.09600000000000364,0.08800000000000097,0.07200000000000273,0.05600000000000449,0.04800000000000182,0.03200000000000358,0.37599999999999767,0.13599999999999568,0.11999999999999744,0.09599999999999653,0.07199999999999562,0.055999999999997385,0.031999999999996476,0.48799999999999955,0.23199999999999932,0.2079999999999984,0.16799999999999926,0.1280000000000001,0.1039999999999992,0.06400000000000006,1.5476012992442287,0.26063867169454036,0.010471996740575529,-0.05597050173113716,8.07921501749861,4.6707712649251345,3.4084437525734756
91,0.6159999999999997,0.6240000000000023,0.344,0.21599999999999964,0.15200000000000102,0.4,0.247999999999999,0.11199999999999477,0.08800000000000097,0.0799999999999983,0.07199999999999562,0.055999999999997385,0.047999999999994714,0.02400000000000091,0.38400000000000034,0.15200000000000102,0.1280000000000001,0.1039999999999992,0.0800000000000054,0.06400000000000006,0.03999999999999915,0.4959999999999951,0.240000000000002,0.2079999999999984,0.17599999999999483,0.13600000000000279,0.11199999999999477,0.06400000000000006,1.6717561177347453,0.3415979175583391,0.08304320584786612,-0.021473190734383918,6.299633861859246,4.009562197662844,2.290071664196402
92,0.632000000000005,0.6319999999999979,0.352,0.23200000000000498,0.1600000000000037,0.4,0.23999999999999633,0.11999999999999744,0.09600000000000364,0.08800000000000097,0.07200000000000273,0.055999999999997385,0.04800000000000182,0.03200000000000358,0.392000000000003,0.1599999999999966,0.13600000000000279,0.1039999999999992,0.0799999999999983,0.06400000000000006,0.03999999999999915,0.5120000000000005,0.2560000000000002,0.22400000000000375,0.17600000000000193,0.13599999999999568,0.11200000000000188,0.07200000000000273,1.7477354762602801,0.36243091516132797,0.10016343946950346,-0.05051263206000656,7.8053436110086345,4.626588361812621,3.178755249196014
93,0.6239999999999952,0.6240000000000023,0.36,0.21599999999999525,0.1599999999999966,0.408,0.24800000000000338,0.11199999999999477,0.09599999999999653,0.08800000000000097,0.07199999999999562,0.055999999999997385,0.04800000000000182,0.031999999999996476,0.3680000000000021,0.15200000000000102,0.1280000000000001,0.09600000000000364,0.07200000000000273,0.06400000000000006,0.03999999999999915,0.4799999999999969,0.24799999999999756,0.21600000000000108,0.16799999999999926,0.1280000000000001,0.11200000000000188,0.07199999999999562,1.896879959467538,0.3783528063821154,0.1120009752564397,0.03276829502481382,16.87340534084855,8.744996347695906,8.128408993152643
94,0.6400000000000006,0.6479999999999961,0.344,0.21600000000000058,0.1600000000000037,0.424,0.2639999999999963,0.11999999999999744,0.09600000000000364,0.08800000000000097,0.07200000000000273,0.055999999999997385,0.04800000000000182,0.03200000000000358,0.38400000000000034,0.14399999999999835,0.1280000000000001,0.09599999999999653,0.07200000000000273,0.06400000000000006,0.03999999999999915,0.5039999999999978,0.240000000000002,0.21600000000000108,0.16799999999999926,0.1280000000000001,0.11200000000000188,0.07200000000000273,1.8029004013936856,0.38023742238041114,0.12335484533221353,0.04256240626756291,14.16439541719255,7.0053146484246955,7.159080768767854
95,0.6240000000000023,0.6160000000000068,0.344,0.20000000000000234,0.16799999999999926,0.424,0.2560000000000007,0.11999999999999744,0.09599999999999653,0.08799999999999386,0.07199999999999562,0.055999999999997385,0.047999999999994714,0.031999999999996476,0.3760000000000048,0.2560000000000002,0.11200000000000188,0.08800000000000097,0.06400000000000006,0.05600000000000449,0.03200000000000358,0.4960000000000022,0.35199999999999676,0.19999999999999574,0.1599999999999966,0.11999999999999744,0.1039999999999992,0.06400000000000006,1.694791508578482,0.3371687060772066,0.08628971163652455,0.024285347863358786,19.436194042090467,9.47917938387937,9.957014658211097
96,0.6159999999999997,0.6159999999999997,0.344,0.19199999999999967,0.1600000000000037,0.424,0.2639999999999963,0.11200000000000188,0.08800000000000097,0.0800000000000054,0.06400000000000006,0.05600000000000449,0.04800000000000182,0.02400000000000091,0.367999999999995,0.127999999999993,0.11199999999999477,0.08799999999999386,0.07199999999999562,0.055999999999997385,0.031999999999996476,0.4799999999999969,0.21599999999999397,0.19200000000000017,0.15199999999999392,0.1280000000000001,0.1039999999999992,0.055999999999997385,1.6983749860265913,0.23844395564828819,-0.01368604903433901,-0.054187206242880315,7.9973953616991444,4.6970342461044945,3.30036111559465
97,0.6319999999999979,0.6319999999999979,0.352,0.23199999999999787,0.1600000000000037,0.4,0.23999999999999633,0.12000000000000455,0.09600000000000364,0.08800000000000097,0.07200000000000273,0.06400000000000006,0.04800000000000182,0.03200000000000358,0.3919999999999959,0.17599999999999483,0.13599999999999568,0.1039999999999992,0.07199999999999562,0.055999999999997385,0.031999999999996476,0.5120000000000005,0.27199999999999847,0.22399999999999665,0.17600000000000193,0.13599999999999568,0.1039999999999992,0.06400000000000006,1.8029886373479793,0.38032144502533116,0.074923814240615,-0.08157225607824115,8.495066901632942,4.913383248275381,3.581683653357561
98,0.6159999999999997,0.6240000000000023,0.344,0.19999999999999968,0.1600000000000037,0.416,0.2559999999999963,0.12000000000000455,0.1039999999999992,0.09600000000000364,0.0799999999999983,0.06400000000000006,0.05600000000000449,0.03200000000000358,0.37599999999999767,0.15200000000000102,0.1280000000000001,0.09599999999999653,0.07199999999999562,0.055999999999997385,0.031999999999996476,0.4960000000000022,0.2560000000000002,0.22400000000000375,0.17599999999999483,0.13599999999999568,0.11200000000000188,0.06400000000000006,1.8259411062640227,0.4889334836655688,0.19065768865509203,0.12054702973844811,10.843696666885448,5.904594085319348,4.939102581566099
99,0.6400000000000006,0.6319999999999979,0.336,0.19200000000000056,0.16800000000000637,0.448,0.27999999999999364,0.12000000000000455,0.09600000000000364,0.08800000000000097,0.07200000000000273,0.05600000000000449,0.04800000000000182,0.03200000000000358,0.37599999999999767,0.11199999999999477,0.1039999999999992,0.0799999999999983,0.06400000000000006,0.047999999999994714,0.031999999999996476,0.4960000000000022,0.2079999999999984,0.19200000000000017,0.15200000000000102,0.12000000000000455,0.09599999999999653,0.06400000000000006,1.588239795314636,0.27113764682249625,0.1697846335316271,0.1412777757157122,10.625750781847158,5.470981207224207,5.154769574622951
100,0.6080000000000041,0.607999999999997,0.344,0.1920000000000041,0.1600000000000037,0.416,0.2559999999999963,0.11200000000000188,0.09600000000000364,0.08800000000000097,0.07200000000000273,0.05600000000000449,0.04800000000000182,0.03200000000000358,0.3680000000000021,0.14399999999999835,0.11999999999999744,0.09599999999999653,0.07199999999999562,0.055999999999997385,0.031999999999996476,0.480000000000004,0.240000000000002,0.2079999999999984,0.16799999999999926,0.1280000000000001,0.1039999999999992,0.06400000000000006,1.4617095146506802,0.14231858140395032,-0.11866698641187845,-0.17108025062401444,9.262125729670313,5.310334585506422,3.9517911441638907
101,0.6159999999999997,0.6159999999999997,0.344,0.19199999999999967,0.1599999999999966,0.424,0.2640000000000034,0.11199999999999477,0.09599999999999653,0.08800000000000097,0.07199999999999562,0.055999999999997385,0.04800000000000182,0.031999999999996476,0.3760000000000048,0.15200000000000102,0.1280000000000001,0.09600000000000364,0.0799999999999983,0.06400000000000006,0.03999999999999915,0.48799999999999955,0.24799999999999756,0.21600000000000108,0.16799999999999926,0.13599999999999568,0.11200000000000188,0.07199999999999562,1.6572663203738478,0.3868546374525929,0.11014147208775182,0.058158789193294425,11.979634153979443,6.392807644152496,5.586826509826947
102,0.6159999999999997,0.632000000000005,0.352,0.22399999999999964,0.1599999999999966,0.392,0.23200000000000343,0.11199999999999477,0.09599999999999653,0.08800000000000097,0.07199999999999562,0.055999999999997385,0.047999999999994714,0.031999999999996476,0.35200000000000387,0.14400000000000546,0.1280000000000001,0.09600000000000364,0.0800000000000054,0.06400000000000006,0.03999999999999915,0.46399999999999864,0.240000000000002,0.21600000000000108,0.16799999999999926,0.13600000000000279,0.11199999999999477,0.07199999999999562,1.6467751803513249,0.23732694850882385,0.014706595269008638,-0.06891557873366949,8.455086742065081,5.0263058195815224,3.4287809224835586
103,0.6400000000000006,0.6400000000000006,0.36,0.20000000000000057,0.17600000000000193,0.44,0.26399999999999807,0.12000000000000455,0.09600000000000364,0.08800000000000097,0.07200000000000273,0.05600000000000449,0.04800000000000182,0.03200000000000358,0.37599999999999767,0.13599999999999568,0.11999999999999744,0.09599999999999653,0.07199999999999562,0.055999999999997385,0.031999999999996476,0.4960000000000022,0.23199999999999932,0.2079999999999984,0.16799999999999926,0.1280000000000001,0.1039999999999992,0.06400000000000006,1.8010050311347037,0.38005275114209547,0.11810524980238335,0.07182285939044686,11.763762534051544,6.358831725842179,5.4049308082093654
104,0.6319999999999979,0.607999999999997,0.344,0.1999999999999979,0.17600000000000193,0.432,0.25599999999999806,0.12000000000000455,0.09600000000000364,0.08800000000000097,0.07200000000000273,0.05600000000000449,0.04800000000000182,0.03200000000000358,0.37599999999999767,0.19999999999999574,0.11999999999999744,0.08799999999999386,0.06399999999999295,0.055999999999997385,0.031999999999996476,0.4960000000000022,0.2959999999999994,0.2079999999999984,0.1599999999999966,0.11999999999999744,0.1039999999999992,0.06400000000000006,1.642212293513344,0.30734727895392133,-0.013844605457161596,-0.07881643764155877,8.62813870479417,4.839164091304576,3.788974613489594
105,0.6000000000000014,0.6000000000000014,0.336,0.18400000000000144,0.15200000000000102,0.416,0.26399999999999896,0.11200000000000188,0.08800000000000097,0.0799999999999983,0.06400000000000006,0.055999999999997385,0.04800000000000182,0.02400000000000091,0.3680000000000021,0.13600000000000279,0.11999999999999744,0.09599999999999653,0.07200000000000273,0.06400000000000006,0.03999999999999915,0.480000000000004,0.22400000000000375,0.19999999999999574,0.1599999999999966,0.1280000000000001,0.11200000000000188,0.06400000000000006,1.6415048587330212,0.3307910076749606,0.10011030360084727,0.06814848149045072,11.473785578941351,6.199187206056254,5.274598372885097
106,0.6239999999999952,0.632000000000005,0.352,0.21599999999999525,0.15200000000000102,0.408,0.25599999999999895,0.1039999999999992,0.08800000000000807,0.0799999999999983,0.06400000000000716,0.055999999999997385,0.04800000000000182,0.02400000000000091,0.3919999999999959,0.15200000000000102,0.13599999999999568,0.1039999999999992,0.0799999999999983,0.06399999999999295,0.031999999999996476,0.4959999999999951,0.2400000000000091,0.21599999999999397,0.16800000000000637,0.13599999999999568,0.11199999999999477,0.055999999999997385,1.6820866373870562,0.31559800445003294,0.07645892169771618,-0.029857036878088605,7.25063428381491,4.439451603498285,2.811182680316625
107,0.6159999999999997,0.6239999999999952,0.344,0.19199999999999967,0.1600000000000108,0.424,0.2639999999999892,0.1280000000000001,0.10400000000001342,0.09600000000000364,0.0800000000000125,0.06400000000000716,0.056000000000011596,0.04000000000000625,0.367999999999995,0.1280000000000001,0.11199999999999477,0.08799999999999386,0.06399999999999295,0.04799999999998761,0.0239999999999867,0.4959999999999951,0.23200000000001353,0.2079999999999984,0.16800000000000637,0.1280000000000001,0.1039999999999992,0.06399999999999295,1.599196866589388,0.3090702248935673,0.09555352986986787,0.0629497604456124,11.616255336953017,6.234192085669456,5.3820632512835616
108,0.6240000000000094,0.6239999999999952,0.344,0.19200000000000944,0.16800000000000637,0.432,0.26399999999999363,0.1280000000000001,0.11200000000000898,0.1039999999999992,0.08800000000000807,0.07200000000000273,0.06400000000000716,0.04000000000000625,0.35999999999999943,0.11199999999999477,0.1039999999999992,0.0799999999999983,0.055999999999997385,0.04800000000000182,0.02400000000000091,0.48799999999999955,0.22400000000000375,0.2079999999999984,0.16800000000000637,0.1280000000000001,0.11200000000000898,0.06400000000000716,1.5380558820051238,0.2695762959254168,0.09705250229783752,0.06746832075531639,11.442664790978453,6.08551611511005,5.3571486758684035
109,0.6159999999999997,0.6080000000000041,0.352,0.18399999999999966,0.16799999999999216,0.432,0.26400000000000784,0.11199999999999477,0.09600000000000364,0.0799999999999983,0.06399999999999295,0.055999999999997385,0.04800000000000182,0.02400000000000091,0.3680000000000092,0.14400000000000546,0.12000000000000455,0.09600000000000364,0.07200000000000273,0.055999999999997385,0.031999999999996476,0.480000000000004,0.2400000000000091,0.20000000000000284,0.1599999999999966,0.1280000000000001,0.1039999999999992,0.055999999999997385,1.428383072237471,0.20114238482862248,-0.07599499367800766,-0.10203321735552395,9.028828855467923,5.257192054097992,3.7716368013699313
110,0.5999999999999943,0.5999999999999943,0.336,0.18399999999999433,0.1599999999999966,0.416,0.2560000000000034,0.12000000000000455,0.09600000000000364,0.08800000000000807,0.07200000000000273,0.055999999999997385,0.04800000000000182,0.031999999999996476,0.367999999999995,0.14400000000000546,0.12000000000000455,0.09600000000000364,0.07200000000000273,0.055999999999997385,0.031999999999996476,0.48799999999999955,0.2400000000000091,0.20800000000001262,0.16800000000000637,0.1280000000000001,0.1039999999999992,0.06399999999999295,1.5595711101709604,0.2997883247889298,0.023918291536960568,-0.008285717070683929,4.745377020956607,3.3496598649658154,1.3957171559907913
111,0.6159999999999997,0.6159999999999997,0.352,0.19199999999999967,0.1599999999999966,0.424,0.2640000000000034,0.11199999999999477,0.09599999999998943,0.08799999999999386,0.07200000000000273,0.055999999999997385,0.04800000000000182,0.031999999999996476,0.3680000000000092,0.14400000000000546,0.1280000000000001,0.09600000000000364,0.07200000000000273,0.06400000000000716,0.04000000000000625,0.480000000000004,0.23999999999999488,0.21599999999999397,0.16800000000000637,0.1280000000000001,0.11200000000000898,0.07200000000000273,1.64529881487951,0.28119119160843425,0.01698489838877193,-0.01783961076537688,6.33446759315929,4.107757684037128,2.226709909122162
112,0.6080000000000041,0.6240000000000094,0.352,0.1840000000000041,0.1599999999999966,0.424,0.2640000000000034,0.11199999999999477,0.09599999999998943,0.08799999999999386,0.07199999999998852,0.055999999999997385,0.04800000000000182,0.031999999999996476,0.3359999999999985,0.1360000000000099,0.12000000000000455,0.09600000000000364,0.07200000000000273,0.06400000000000716,0.04000000000000625,0.4479999999999933,0.23199999999999932,0.2079999999999984,0.16799999999999216,0.1280000000000001,0.11200000000000898,0.07200000000000273,1.6748379941554508,0.31174040474056136,0.1096949481392932,0.0974674307469856,10.915708977447858,6.163082368353416,4.752626609094442
113,0.6159999999999997,0.5999999999999943,0.352,0.18399999999999966,0.17600000000000193,0.432,0.25599999999999806,0.12000000000000455,0.09600000000000364,0.08800000000000807,0.07200000000000273,0.056000000000011596,0.04800000000000182,0.03200000000001069,0.367999999999995,0.2560000000000002,0.11999999999999034,0.08799999999999386,0.07199999999998852,0.055999999999997385,0.031999999999996476,0.48799999999999955,0.35200000000000387,0.2079999999999984,0.1599999999999966,0.1280000000000001,0.1039999999999992,0.06400000000000716,1.4601149210722133,0.2506319286712201,-0.022939557163666746,-0.052118765815363455,8.438922161016782,4.994783556061714,3.444138604955068
114,0.5999999999999943,0.5999999999999943,0.344,0.18399999999999433,0.1599999999999966,0.416,0.2560000000000034,0.12000000000000455,0.09600000000000364,0.08799999999999386,0.07200000000000273,0.055999999999997385,0.04800000000000182,0.031999999999996476,0.367999999999995,0.14400000000000546,0.12000000000000455,0.09600000000000364,0.07200000000000273,0.055999999999997385,0.031999999999996476,0.48799999999999955,0.2400000000000091,0.2079999999999984,0.16800000000000637,0.1280000000000001,0.1039999999999992,0.06399999999999295,1.471397536483277,0.26383995054953124,0.0024234502995720275,-0.024328341300208445,7.345921898935519,4.55242086694675,2.793501031988769
115,0.6000000000000085,0.6080000000000041,0.36,0.19200000000000855,0.1599999999999966,0.408,0.24800000000000338,0.11999999999999034,0.1039999999999992,0.09599999999998943,0.0799999999999983,0.06399999999999295,0.055999999999997385,0.031999999999996476,0.3680000000000092,0.1600000000000108,0.1280000000000001,0.10400000000001342,0.0800000000000125,0.06400000000000716,0.04000000000000625,0.48799999999999955,0.26400000000001,0.22399999999998954,0.1840000000000117,0.14400000000000546,0.12000000000000455,0.07200000000000273,1.6064688178461684,0.3308603298450531,0.030792693050349262,-0.026911759925706935,7.462515403203722,4.8121998068215674,2.6503155963821543
116,0.6079999999999899,0.6159999999999997,0.352,0.1839999999999899,0.16799999999999216,0.424,0.25600000000000783,0.12000000000000455,0.09600000000000364,0.08799999999999386,0.07200000000000273,0.055999999999997385,0.04800000000000182,0.031999999999996476,0.35999999999999943,0.13599999999999568,0.12000000000000455,0.09600000000000364,0.07200000000000273,0.055999999999997385,0.031999999999996476,0.480000000000004,0.23199999999999932,0.2079999999999984,0.16800000000000637,0.1280000000000001,0.1039999999999992,0.06399999999999295,1.5558034666020095,0.3311843428109945,0.11012428168376959,0.08883754264743188,10.877195538301867,6.154080099488122,4.723115438813745
117,0.6000000000000085,0.5919999999999987,0.344,0.17600000000000854,0.17600000000000193,0.424,0.24799999999999806,0.11999999999999034,0.1039999999999992,0.09600000000000364,0.07200000000000273,0.06399999999999295,0.04800000000000182,0.031999999999996476,0.35200000000000387,0.13599999999999568,0.11200000000000898,0.08800000000000807,0.06400000000000716,0.055999999999997385,0.031999999999996476,0.4719999999999942,0.23999999999999488,0.20800000000001262,0.1600000000000108,0.1280000000000001,0.1039999999999992,0.06399999999999295,1.45070339120258,0.2974382214881702,0.03151171914027179,0.01829634544434372,17.434407943323762,8.99862776592449,8.435780177399272
118,0.5999999999999943,0.6000000000000085,0.352,0.18399999999999433,0.16799999999999216,0.416,0.24800000000000783,0.11999999999999034,0.1039999999999992,0.09599999999998943,0.0799999999999983,0.06399999999999295,0.055999999999997385,0.031999999999996476,0.35999999999999943,0.14400000000000546,0.12000000000000455,0.08800000000000807,0.07200000000000273,0.055999999999997385,0.03200000000001069,0.47999999999998977,0.24800000000000466,0.21599999999999397,0.16800000000000637,0.13599999999999568,0.11199999999999477,0.06400000000000716,1.3960224265006511,0.20091336690222772,-0.07173927113655099,-0.10053482507290734,9.134826199340067,5.452728202037454,3.6820979973026127
119,0.6000000000000085,0.5999999999999943,0.352,0.16800000000000853,0.16800000000000637,0.432,0.26399999999999363,0.1280000000000001,0.1039999999999992,0.09600000000000364,0.0799999999999983,0.06400000000000716,0.056000000000011596,0.04000000000000625,0.367999999999995,0.14399999999999125,0.11999999999999034,0.08799999999999386,0.07199999999998852,0.055999999999997385,0.031999999999996476,0.4959999999999951,0.24799999999999045,0.21599999999999397,0.16799999999999216,0.13599999999999568,0.11200000000000898,0.07200000000000273,1.5542538211775123,0.3740760910284695,0.07803222368029322,0.070858613263725,11.0864869993984,6.335166396606194,4.751320602792205
120,0.6159999999999997,0.6080000000000041,0.336,0.17599999999999966,0.16799999999999216,0.44,0.27200000000000785,0.12000000000000455,0.09600000000000364,0.08799999999999386,0.07200000000000273,0.055999999999997385,0.04800000000000182,0.031999999999996476,0.367999999999995,0.12000000000000455,0.1039999999999992,0.08800000000000807,0.06400000000000716,0.055999999999997385,0.031999999999996476,0.48799999999999955,0.21600000000000819,0.19199999999999307,0.1600000000000108,0.12000000000000455,0.1039999999999992,0.06399999999999295,1.3887547303399164,0.268643394639997,0.14861861589669934,0.1349676224998521,10.417716649109549,5.605563024413396,4.812153624696153
121,0.583999999999989,0.5919999999999987,0.328,0.167999999999989,0.1599999999999966,0.416,0.2560000000000034,0.11200000000000898,0.09600000000000364,0.08800000000000807,0.07200000000000273,0.055999999999997385,0.04800000000000182,0.031999999999996476,0.35200000000000387,0.1280000000000001,0.11199999999999477,0.08799999999999386,0.06399999999999295,0.055999999999997385,0.031999999999996476,0.46400000000001285,0.22400000000000375,0.20000000000000284,0.1599999999999966,0.11999999999999034,0.1039999999999992,0.06399999999999295,1.2103498136071225,0.11207700825712388,-0.12573341064004556,-0.13262311477670652,9.38353501873098,5.330305177140145,4.053229841590834
122,0.5919999999999987,0.5919999999999987,0.344,0.16799999999999876,0.16800000000000637,0.424,0.2559999999999936,0.12000000000000455,0.09600000000000364,0.08800000000000807,0.07200000000000273,0.06400000000000716,0.04800000000000182,0.031999999999996476,0.35200000000000387,0.1280000000000001,0.11199999999999477,0.08799999999999386,0.06399999999999295,0.055999999999997385,0.031999999999996476,0.4720000000000084,0.22400000000000375,0.20000000000000284,0.1599999999999966,0.1280000000000001,0.1039999999999992,0.06399999999999295,1.3357653359526929,0.30147601103416505,0.09699567992000085,0.0914850015162027,10.625958874671813,6.0712507178193915,4.5547081568524215
123,0.6080000000000041,0.6080000000000041,0.36,0.1920000000000041,0.16800000000000637,0.416,0.24799999999999361,0.12000000000000455,0.09600000000000364,0.08799999999999386,0.07200000000000273,0.055999999999997385,0.04800000000000182,0.031999999999996476,0.367999999999995,0.15200000000000102,0.1280000000000001,0.09600000000000364,0.07200000000000273,0.06399999999999295,0.04000000000000625,0.48799999999999955,0.24800000000000466,0.21599999999999397,0.16800000000000637,0.1280000000000001,0.11199999999999477,0.07200000000000273,1.434880590046088,0.158643327924551,-0.15026241461448941,-0.19659352396440877,9.459864137601373,5.649976754531145,3.8098873830702287
124,0.6080000000000041,0.5919999999999987,0.352,0.1840000000000041,0.17600000000000193,0.424,0.24799999999999806,0.12000000000000455,0.09600000000000364,0.08800000000000807,0.06400000000000716,0.055999999999997385,0.04800000000000182,0.02400000000000091,0.35999999999999943,0.14399999999999125,0.11999999999999034,0.09600000000000364,0.07200000000000273,0.055999999999997385,0.03999999999999204,0.480000000000004,0.23999999999999488,0.2079999999999984,0.1600000000000108,0.1280000000000001,0.1039999999999992,0.06399999999999295,1.389709237548525,0.1744569353263948,-0.12648408012376788,-0.15480885184438492,9.385235754641625,5.489461739420869,3.8957740152207565
125,0.5919999999999987,0.5999999999999943,0.336,0.16799999999999876,0.1599999999999966,0.424,0.2640000000000034,0.11200000000000898,0.09600000000000364,0.08800000000000807,0.07200000000000273,0.055999999999997385,0.04800000000000182,0.02400000000000091,0.35999999999999943,0.13599999999999568,0.12000000000000455,0.08799999999999386,0.07200000000000273,0.055999999999997385,0.031999999999996476,0.4720000000000084,0.23199999999999932,0.20800000000001262,0.1599999999999966,0.1280000000000001,0.1039999999999992,0.055999999999997385,1.4301724123168196,0.2624940737900975,0.02259296680749756,0.016074719514498237,17.52626919127793,8.931792953250685,8.594476238027244
126,0.5999999999999943,0.6000000000000085,0.344,0.19199999999999434,0.16799999999999216,0.408,0.24000000000000782,0.11999999999999034,0.1039999999999992,0.09599999999998943,0.0799999999999983,0.06399999999999295,0.055999999999997385,0.031999999999996476,0.35999999999999943,0.14400000000000546,0.12000000000000455,0.09600000000000364,0.07200000000000273,0.055999999999997385,0.03200000000001069,0.47999999999998977,0.24800000000000466,0.21599999999999397,0.17600000000000193,0.13599999999999568,0.11199999999999477,0.06400000000000716,1.5887796179996891,0.31818725544189147,0.006784625761520724,-0.04186865619026148,8.296784761613484,4.968818378731549,3.327966382881935
127,0.6080000000000041,0.5999999999999943,0.336,0.1680000000000041,0.16800000000000637,0.44,0.27199999999999364,0.12000000000000455,0.09600000000000364,0.08800000000000807,0.07200000000000273,0.056000000000011596,0.04800000000000182,0.03200000000001069,0.37599999999999056,0.27199999999999136,0.1039999999999992,0.0799999999999983,0.06399999999999295,0.055999999999997385,0.031999999999996476,0.4959999999999951,0.367999999999995,0.19200000000000728,0.15200000000000102,0.12000000000000455,0.1039999999999992,0.06400000000000716,1.5035394285078851,0.2907175857778969,0.1361260950443801,0.13054122741596919,10.44608427600321,5.700273696321137,4.7458105796820735
128,0.5840000000000032,0.5919999999999987,0.328,0.1680000000000032,0.1599999999999966,0.416,0.2560000000000034,0.11199999999999477,0.09600000000000364,0.08799999999999386,0.07200000000000273,0.055999999999997385,0.04800000000000182,0.031999999999996476,0.3439999999999941,0.1280000000000001,0.11199999999999477,0.08799999999999386,0.06400000000000716,0.055999999999997385,0.031999999999996476,0.45599999999998886,0.22400000000000375,0.19999999999998863,0.1599999999999966,0.12000000000000455,0.1039999999999992,0.06399999999999295,1.3800445276167148,0.1699484376747586,-0.06271801007932104,-0.06548482044034942,8.915328537663948,5.13090975622988,3.7844187814340673
129,0.5999999999999943,0.5919999999999987,0.344,0.17599999999999433,0.16799999999999216,0.424,0.25600000000000783,0.12000000000000455,0.09600000000000364,0.08799999999999386,0.07200000000000273,0.06399999999999295,0.055999999999997385,0.031999999999996476,0.367999999999995,0.2560000000000002,0.12000000000000455,0.08800000000000807,0.07200000000000273,0.055999999999997385,0.031999999999996476,0.48799999999999955,0.35200000000000387,0.2079999999999984,0.1600000000000108,0.13599999999999568,0.11199999999999477,0.06399999999999295,1.4282670823638854,0.2751828520791241,-0.01799074065968964,-0.03402147182955617,8.17875039171504,4.907054771100692,3.2716956206143477
130,0.5999999999999943,0.6080000000000041,0.344,0.18399999999999433,0.1599999999999966,0.416,0.2560000000000034,0.11999999999999034,0.09600000000000364,0.08799999999999386,0.07200000000000273,0.055999999999997385,0.04800000000000182,0.031999999999996476,0.35999999999999943,0.14400000000000546,0.12000000000000455,0.09600000000000364,0.07200000000000273,0.055999999999997385,0.031999999999996476,0.47999999999998977,0.2400000000000091,0.2079999999999984,0.16800000000000637,0.1280000000000001,0.1039999999999992,0.06399999999999295,1.5059302812188986,0.31871546204039447,0.06382288706096251,0.03722229506216973,12.237197183518026,6.684036924805694,5.553160258712332
131,0.6000000000000085,0.5919999999999987,0.328,0.19200000000000855,0.16800000000000637,0.408,0.2399999999999936,0.12000000000000455,0.1039999999999992,0.08799999999999386,0.07200000000000273,0.06400000000000716,0.04800000000000182,0.031999999999996476,0.35999999999999943,0.23199999999999932,0.11199999999999477,0.08799999999999386,0.06399999999999295,0.04800000000000182,0.031999999999996476,0.480000000000004,0.3359999999999985,0.19999999999998863,0.1599999999999966,0.1280000000000001,0.09600000000000364,0.06399999999999295,1.3588992300447358,0.32136929191786573,0.097079665346964,0.06116635524517916,11.014125755993827,5.867642142313126,5.146483613680702
132,0.5840000000000032,0.5840000000000032,0.328,0.1760000000000032,0.1599999999999966,0.408,0.24800000000000338,0.12000000000000455,0.09600000000000364,0.08799999999999386,0.07200000000000273,0.055999999999997385,0.04800000000000182,0.031999999999996476,0.35999999999999943,0.2079999999999984,0.12000000000000455,0.08799999999999386,0.06400000000000716,0.055999999999997385,0.031999999999996476,0.480000000000004,0.30400000000000205,0.2079999999999984,0.1599999999999966,0.12000000000000455,0.1039999999999992,0.06399999999999295,1.2924403193551843,0.2003042836315725,-0.08203313169126103,-0.10287566683012539,9.309737515643942,5.300540478664042,4.0091970369798995
133,0.5919999999999987,0.5999999999999943,0.336,0.18399999999999878,0.1599999999999966,0.408,0.24800000000000338,0.12000000000000455,0.09600000000000364,0.08800000000000807,0.07200000000000273,0.055999999999997385,0.04800000000000182,0.031999999999996476,0.35999999999999943,0.14399999999999125,0.11999999999999034,0.09600000000000364,0.07200000000000273,0.06399999999999295,0.031999999999996476,0.480000000000004,0.23999999999999488,0.2079999999999984,0.16800000000000637,0.1280000000000001,0.11199999999999477,0.06399999999999295,1.4934506209600178,0.3243250291948729,0.04062499752098381,0.00761523144630627,121.16806583982452,53.41609996282226,67.75196587700226
134,0.5999999999999943,0.6000000000000085,0.344,0.18399999999999433,0.16799999999999216,0.416,0.24800000000000783,0.11999999999999034,0.1039999999999992,0.09600000000000364,0.0799999999999983,0.06399999999999295,0.055999999999997385,0.031999999999996476,0.35999999999999943,0.14400000000000546,0.12000000000000455,0.09600000000000364,0.07200000000000273,0.055999999999997385,0.031999999999996476,0.47999999999998977,0.24800000000000466,0.21600000000000819,0.17600000000000193,0.13599999999999568,0.11199999999999477,0.06399999999999295,1.5009074670558105,0.3125721253270898,0.0163561331705101,-0.014926170397232652,6.745196147868993,4.283619336566585,2.4615768113024075
135,0.5999999999999943,0.583999999999989,0.336,0.18399999999999433,0.16800000000000637,0.416,0.24799999999999361,0.12000000000000455,0.09600000000000364,0.08800000000000807,0.07200000000000273,0.056000000000011596,0.04800000000000182,0.03200000000001069,0.367999999999995,0.28000000000000114,0.11199999999999477,0.08799999999999386,0.06399999999999295,0.055999999999997385,0.031999999999996476,0.48799999999999955,0.3760000000000048,0.20000000000000284,0.1599999999999966,0.12000000000000455,0.1039999999999992,0.06400000000000716,1.4429059803758073,0.3627306044235119,0.12828488528849358,0.09469647373789747,10.587253016902876,5.837435052093277,4.749817964809599
136,0.5840000000000032,0.5919999999999987,0.328,0.18400000000000316,0.15200000000000102,0.4,0.247999999999999,0.11199999999999477,0.09599999999998943,0.08799999999999386,0.07199999999998852,0.055999999999997385,0.04799999999998761,0.031999999999996476,0.3680000000000092,0.14400000000000546,0.12000000000000455,0.09600000000000364,0.07200000000000273,0.06400000000000716,0.03200000000001069,0.480000000000004,0.23999999999999488,0.2079999999999984,0.16799999999999216,0.1280000000000001,0.11199999999999477,0.06400000000000716,1.3365634814393212,0.1953896235709763,-0.06451297664284994,-0.10243257554124185,9.302255819949066,5.301902255310595,4.000353564638471
137,0.6000000000000085,0.6000000000000085,0.344,0.17600000000000854,0.1599999999999966,0.424,0.2640000000000034,0.11199999999999477,0.09599999999998943,0.08799999999999386,0.07199999999998852,0.055999999999997385,0.04799999999998761,0.031999999999996476,0.3760000000000048,0.1840000000000117,0.1360000000000099,0.10400000000001342,0.0800000000000125,0.06400000000000716,0.04000000000000625,0.48799999999999955,0.28000000000000114,0.22400000000000375,0.17600000000000193,0.1360000000000099,0.11199999999999477,0.07200000000000273,1.5213982910652875,0.37179497934694594,0.004118540425611994,-0.013320009186765902,6.593936750882176,4.217145231809523,2.376791519072653
138,0.6079999999999899,0.6080000000000041,0.344,0.1839999999999899,0.1599999999999966,0.424,0.2640000000000034,0.12000000000000455,0.09600000000000364,0.08800000000000807,0.07200000000000273,0.055999999999997385,0.04800000000000182,0.031999999999996476,0.367999999999995,0.14399999999999125,0.1280000000000001,0.09600000000000364,0.07200000000000273,0.06399999999999295,0.03999999999999204,0.48799999999999955,0.23999999999999488,0.21600000000000819,0.16800000000000637,0.1280000000000001,0.11199999999999477,0.07199999999998852,1.5108398090054536,0.3625091693567028,0.0840972812119421,0.06027790368243813,11.124298556986998,6.116594975255568,5.00770358173143
139,0.5840000000000032,0.583999999999989,0.328,0.1760000000000032,0.1600000000000108,0.408,0.24799999999998917,0.12000000000000455,0.09600000000000364,0.08800000000000807,0.07200000000000273,0.056000000000011596,0.04800000000000182,0.02400000000000091,0.367999999999995,0.19999999999998863,0.11999999999999034,0.08799999999999386,0.07199999999998852,0.055999999999997385,0.03999999999999204,0.48799999999999955,0.29599999999999227,0.2079999999999984,0.1599999999999966,0.1280000000000001,0.1039999999999992,0.06399999999999295,1.4127273926832546,0.28048641211361464,-0.011419553553148276,-0.03859155613424281,8.514569168362781,4.955945197170718,3.5586239711920635
140,0.5919999999999987,0.5840000000000032,0.336,0.18399999999999878,0.1599999999999966,0.408,0.24800000000000338,0.11999999999999034,0.09599999999998943,0.08799999999999386,0.07199999999998852,0.06399999999999295,0.04800000000000182,0.031999999999996476,0.3680000000000092,0.23199999999999932,0.12000000000000455,0.09600000000000364,0.07200000000000273,0.056000000000011596,0.03200000000001069,0.48799999999999955,0.32799999999998875,0.2079999999999984,0.16799999999999216,0.13599999999999568,0.10400000000001342,0.06400000000000716,1.5757690976197565,0.30126350081630626,-0.023313274132877093,-0.058234883306748086,8.811266056857336,5.143058153230951,3.668207903626385
141,0.5919999999999987,0.6000000000000085,0.336,0.19199999999999873,0.15200000000000102,0.4,0.247999999999999,0.11199999999999477,0.09600000000000364,0.08799999999999386,0.07200000000000273,0.055999999999997385,0.04800000000000182,0.02400000000000091,0.35200000000000387,0.14400000000000546,0.1280000000000001,0.09600000000000364,0.07200000000000273,0.06400000000000716,0.04000000000000625,0.46399999999999864,0.2400000000000091,0.21599999999999397,0.16800000000000637,0.1280000000000001,0.11200000000000898,0.06400000000000716,1.6334583133770009,0.3431237566611749,0.07826078342559128,0.04776257417395957,11.605830100176,6.337183952388792,5.268646147787208
142,0.6000000000000085,0.5999999999999943,0.328,0.2000000000000085,0.1600000000000108,0.4,0.23999999999998922,0.11200000000000898,0.08800000000000807,0.0800000000000125,0.06400000000000716,0.056000000000011596,0.04800000000000182,0.02400000000000091,0.35199999999998965,0.14399999999999125,0.11999999999999034,0.09599999999998943,0.07199999999998852,0.06399999999999295,0.03999999999999204,0.46399999999999864,0.23199999999999932,0.20000000000000284,0.1599999999999966,0.1280000000000001,0.11199999999999477,0.06399999999999295,1.6040789516777765,0.3826332081163517,0.1064021451822858,0.049012956075886516,11.524675541840823,6.078937022102002,5.445738519738821
143,0.5919999999999987,0.5919999999999987,0.328,0.17599999999999877,0.1599999999999966,0.416,0.2560000000000034,0.11199999999999477,0.09600000000000364,0.08799999999999386,0.07200000000000273,0.055999999999997385,0.04800000000000182,0.031999999999996476,0.367999999999995,0.22400000000000375,0.12000000000000455,0.08799999999999386,0.06399999999999295,0.055999999999997385,0.031999999999996476,0.47999999999998977,0.3200000000000074,0.2079999999999984,0.1599999999999966,0.11999999999999034,0.1039999999999992,0.06399999999999295,1.4600586255238976,0.21883192431840987,-0.10172860003001194,-0.11758119392877864,9.348131217512245,5.246098032045492,4.102033185466753
144,0.5919999999999987,0.5919999999999987,0.336,0.18399999999999878,0.1599999999999966,0.408,0.24800000000000338,0.12000000000000455,0.1039999999999992,0.09600000000000364,0.0799999999999983,0.06399999999999295,0.055999999999997385,0.031999999999996476,0.367999999999995,0.2639999999999958,0.1280000000000001,0.09600000000000364,0.07200000000000273,0.055999999999997385,0.031999999999996476,0.48799999999999955,0.367999999999995,0.22400000000000375,0.17600000000000193,0.13599999999999568,0.11199999999999477,0.06399999999999295,1.709066250438505,0.42481074255577056,0.06893251054097527,0.031075485169187456,12.813116159642172,6.851117817444733,5.96199834219744
145,0.5919999999999987,0.6000000000000085,0.352,0.17599999999999877,0.1599999999999966,0.416,0.2560000000000034,0.12000000000000455,0.09600000000000364,0.08799999999999386,0.07200000000000273,0.06399999999999295,0.04800000000000182,0.031999999999996476,0.35999999999999943,0.14400000000000546,0.12000000000000455,0.08800000000000807,0.07200000000000273,0.055999999999997385,0.031999999999996476,0.480000000000004,0.2400000000000091,0.2079999999999984,0.1600000000000108,0.13599999999999568,0.1039999999999992,0.06399999999999295,1.6180735595454978,0.32283408311921624,0.024144155630589137,0.0062383684867582945,-91.67601747270683,-40.95837983997772,-50.717637632729115
146,0.6080000000000041,0.5919999999999987,0.336,0.1920000000000041,0.16800000000000637,0.416,0.24799999999999361,0.12000000000000455,0.09600000000000364,0.08800000000000807,0.07200000000000273,0.056000000000011596,0.04800000000000182,0.03200000000001069,0.37599999999999056,0.27199999999999136,0.11999999999999034,0.08799999999999386,0.06399999999999295,0.055999999999997385,0.031999999999996476,0.4959999999999951,0.367999999999995,0.2079999999999984,0.1599999999999966,0.12000000000000455,0.1039999999999992,0.06400000000000716,1.6839355129349305,0.39971883427595645,0.10087596105952379,0.04822588291847463,11.632398149070683,6.206650971420657,5.425747177650027
147,0.583999999999989,0.5919999999999987,0.328,0.19999999999998896,0.15200000000000102,0.384,0.23199999999999898,0.11200000000000898,0.09600000000000364,0.08800000000000807,0.07200000000000273,0.056000000000011596,0.04800000000000182,0.03200000000001069,0.37599999999999056,0.27199999999999136,0.1280000000000001,0.09599999999998943,0.07199999999998852,0.055999999999997385,0.031999999999996476,0.48799999999999955,0.367999999999995,0.21600000000000819,0.16799999999999216,0.1280000000000001,0.1039999999999992,0.06400000000000716,1.476071626029945,0.31294656987118147,0.007910041675658452,-0.0915754099285232,9.249200094382452,5.2765557899692945,3.9726443044131576
148,0.5840000000000032,0.5919999999999987,0.344,0.19200000000000317,0.1600000000000108,0.392,0.23199999999998921,0.12000000000000455,0.09600000000000364,0.08800000000000807,0.07200000000000273,0.06400000000000716,0.04800000000000182,0.03200000000001069,0.35999999999999943,0.19999999999998863,0.1280000000000001,0.09599999999998943,0.07199999999998852,0.055999999999997385,0.031999999999996476,0.480000000000004,0.29599999999999227,0.21600000000000819,0.16799999999999216,0.13599999999999568,0.1039999999999992,0.06400000000000716,1.7100719732388314,0.457653391814718,0.10658340651935994,0.04628436408263703,11.569948305565164,6.578603540088826,4.991344765476338
149,0.6000000000000085,0.5919999999999987,0.328,0.24800000000000855,0.16800000000000637,0.352,0.1839999999999936,0.12000000000000455,0.09600000000000364,0.08800000000000807,0.07200000000000273,0.06400000000000716,0.055999999999997385,0.031999999999996476,0.3359999999999985,0.1599999999999966,0.1280000000000001,0.09600000000000364,0.07200000000000273,0.055999999999997385,0.031999999999996476,0.45600000000000307,0.2560000000000002,0.21600000000000819,0.16800000000000637,0.1360000000000099,0.11199999999999477,0.06399999999999295,1.6333522761301922,0.3913293857652942,0.1384084735006117,-0.010203996594207676,5.824607687318721,3.796442828308364,2.0281648590103574
150,0.5999999999999943,0.5919999999999987,0.328,0.16799999999999432,0.1599999999999966,0.432,0.2720000000000034,0.11200000000000898,0.09600000000000364,0.08800000000000807,0.07200000000000273,0.055999999999997385,0.04800000000000182,0.02400000000000091,0.367999999999995,0.1280000000000001,0.11199999999999477,0.08799999999999386,0.06399999999999295,0.055999999999997385,0.031999999999996476,0.480000000000004,0.22400000000000375,0.20000000000000284,0.1599999999999966,0.11999999999999034,0.1039999999999992,0.055999999999997385,1.5733209305639422,0.4026266648144585,0.20648781644631442,0.20251064047014244,10.192474341840414,5.529556347697449,4.6629179941429655
151,0.5919999999999987,0.5840000000000032,0.344,0.18399999999999878,0.1599999999999966,0.408,0.24800000000000338,0.12000000000000455,0.09600000000000364,0.08799999999999386,0.07200000000000273,0.055999999999997385,0.04800000000000182,0.031999999999996476,0.367999999999995,0.24800000000000466,0.1280000000000001,0.09600000000000364,0.07200000000000273,0.06400000000000716,0.04000000000000625,0.48799999999999955,0.3440000000000083,0.21599999999999397,0.16800000000000637,0.1280000000000001,0.11200000000000898,0.07200000000000273,1.6843618977689845,0.4452353468678973,0.1041506601195844,0.06439722402674808,11.00011929577314,6.23471438031802,4.765404915455121
152,0.5919999999999987,0.5999999999999943,0.344,0.19199999999999873,0.15200000000000102,0.4,0.247999999999999,0.11200000000000898,0.09600000000000364,0.08800000000000807,0.07200000000000273,0.055999999999997385,0.04800000000000182,0.031999999999996476,0.35999999999999943,0.15200000000000102,0.1280000000000001,0.1039999999999992,0.0799999999999983,0.06399999999999295,0.03999999999999204,0.4720000000000084,0.24800000000000466,0.21600000000000819,0.17600000000000193,0.13599999999999568,0.11199999999999477,0.07199999999998852,1.5636893161198677,0.3454216005326987,0.09060440618284205,0.04185365553302345,11.607540251532335,6.490724955564936,5.116815295967399
153,0.5919999999999987,0.5919999999999987,0.336,0.16799999999999876,0.1600000000000108,0.424,0.2639999999999892,0.11200000000000898,0.09600000000000364,0.08800000000000807,0.07200000000000273,0.056000000000011596,0.04800000000000182,0.03200000000001069,0.37599999999999056,0.13599999999999568,0.11999999999999034,0.08799999999999386,0.07199999999998852,0.055999999999997385,0.031999999999996476,0.48799999999999955,0.23199999999999932,0.2079999999999984,0.1599999999999966,0.1280000000000001,0.1039999999999992,0.06400000000000716,1.3657069429659867,0.1801689945245893,-0.08387959992131333,-0.09398455471531042,9.321354436249036,5.360107494121875,3.961246942127161
154,0.592000000000013,0.5919999999999987,0.344,0.16800000000001297,0.1600000000000108,0.424,0.2639999999999892,0.12000000000000455,0.09600000000000364,0.08800000000000807,0.07200000000000273,0.06400000000000716,0.055999999999997385,0.03200000000001069,0.367999999999995,0.14399999999999125,0.11999999999999034,0.09599999999998943,0.07200000000000273,0.055999999999997385,0.031999999999996476,0.48799999999999955,0.23999999999999488,0.2079999999999984,0.16799999999999216,0.1360000000000099,0.11199999999999477,0.06400000000000716,1.438507947709771,0.2285276517928463,-0.049076725564987655,-0.05679606190381947,8.962017782854033,5.330169409481904,3.6318483733721294
155,0.5999999999999943,0.5999999999999943,0.344,0.17599999999999433,0.1599999999999966,0.424,0.2640000000000034,0.12000000000000455,0.09600000000000364,0.08800000000000807,0.07200000000000273,0.06400000000000716,0.04800000000000182,0.031999999999996476,0.35999999999999943,0.14399999999999125,0.11999999999999034,0.09600000000000364,0.07200000000000273,0.055999999999997385,0.031999999999996476,0.480000000000004,0.23999999999999488,0.2079999999999984,0.16800000000000637,0.1360000000000099,0.1039999999999992,0.06399999999999295,1.6335808622353603,0.3585352977122595,0.07927674118290151,0.06222279574182943,11.02662097216531,6.16165370240799,4.86496726975732
156,0.5999999999999943,0.5919999999999987,0.328,0.18399999999999433,0.1599999999999966,0.416,0.2560000000000034,0.11999999999999034,0.09600000000000364,0.08799999999999386,0.07200000000000273,0.055999999999997385,0.04800000000000182,0.031999999999996476,0.3680000000000092,0.2560000000000002,0.11200000000000898,0.08800000000000807,0.06400000000000716,0.055999999999997385,0.031999999999996476,0.48799999999999955,0.35200000000000387,0.20000000000000284,0.1600000000000108,0.12000000000000455,0.1039999999999992,0.06399999999999295,1.4641482850656597,0.2514167701574861,0.031996249455365056,0.003040348020199257,-10.104797903947613,-2.8639842535102926,-7.240813650437321
157,0.5840000000000032,0.5919999999999987,0.32,0.1760000000000032,0.15200000000000102,0.408,0.25599999999999895,0.11199999999999477,0.09599999999998943,0.08799999999999386,0.07200000000000273,0.055999999999997385,0.04800000000000182,0.031999999999996476,0.3680000000000092,0.2880000000000109,0.12000000000000455,0.08800000000000807,0.07200000000000273,0.055999999999997385,0.03200000000001069,0.480000000000004,0.38400000000000034,0.2079999999999984,0.1600000000000108,0.1280000000000001,0.1039999999999992,0.06400000000000716,1.4538034702288782,0.27369517999775045,-0.014205306166875542,-0.04126929478442232,8.704965802586239,4.9276571596125285,3.7773086429737104
158,0.6000000000000085,0.5919999999999987,0.344,0.17600000000000854,0.1599999999999966,0.424,0.2640000000000034,0.11999999999999034,0.09599999999998943,0.08799999999999386,0.07199999999998852,0.06399999999999295,0.055999999999997385,0.031999999999996476,0.3680000000000092,0.26400000000001,0.12000000000000455,0.08800000000000807,0.07200000000000273,0.056000000000011596,0.03200000000001069,0.48799999999999955,0.35999999999999943,0.2079999999999984,0.1599999999999966,0.13599999999999568,0.11200000000000898,0.06400000000000716,1.6016470861331684,0.29702599764412235,-0.0009995548467827131,-0.01887094808656098,7.408824578106293,4.577615696687803,2.8312088814184895
159,0.5919999999999987,0.6000000000000085,0.336,0.17599999999999877,0.1519999999999868,0.416,0.26400000000001317,0.11199999999999477,0.09599999999998943,0.08799999999999386,0.07199999999998852,0.055999999999997385,0.04799999999998761,0.031999999999996476,0.35999999999999943,0.1360000000000099,0.12000000000000455,0.09600000000000364,0.07200000000000273,0.056000000000011596,0.03200000000001069,0.4719999999999942,0.23199999999999932,0.2079999999999984,0.16799999999999216,0.1280000000000001,0.1039999999999992,0.06400000000000716,1.583582482102421,0.2761108822915903,0.03613110077294679,0.024407424174283432,13.226434311813229,7.027675164361566,6.198759147451663
160,0.6079999999999899,0.5919999999999987,0.328,0.1839999999999899,0.1599999999999966,0.424,0.2640000000000034,0.11200000000000898,0.09600000000000364,0.08800000000000807,0.07200000000000273,0.055999999999997385,0.04800000000000182,0.031999999999996476,0.38400000000000034,0.30400000000000205,0.12000000000000455,0.08799999999999386,0.07200000000000273,0.055999999999997385,0.031999999999996476,0.4960000000000093,0.4000000000000057,0.20800000000001262,0.1599999999999966,0.1280000000000001,0.1039999999999992,0.06399999999999295,1.592023111573421,0.332014316635322,0.08559652740391444,0.045791650470605405,11.440196926342232,5.972663336627896,5.467533589714336
161,0.5840000000000032,0.5919999999999987,0.32,0.1760000000000032,0.14400000000000546,0.408,0.2639999999999945,0.1039999999999992,0.08799999999999386,0.0799999999999983,0.06400000000000716,0.055999999999997385,0.04800000000000182,0.02400000000000091,0.38400000000000034,0.30400000000000205,0.12000000000000455,0.09600000000000364,0.07200000000000273,0.055999999999997385,0.031999999999996476,0.48799999999999955,0.3919999999999959,0.20000000000000284,0.1600000000000108,0.1280000000000001,0.1039999999999992,0.055999999999997385,1.4682547624384643,0.20988630997010027,-0.11593138686119198,-0.14689514245485136,9.518324206736555,5.263209822354877,4.255114384381677
162,0.5919999999999987,0.5919999999999987,0.328,0.18399999999999878,0.15200000000000102,0.408,0.25599999999999895,0.11199999999999477,0.09600000000000364,0.08799999999999386,0.07200000000000273,0.055999999999997385,0.04800000000000182,0.031999999999996476,0.3760000000000048,0.2560000000000002,0.12000000000000455,0.08799999999999386,0.07200000000000273,0.055999999999997385,0.031999999999996476,0.48799999999999955,0.35200000000000387,0.2079999999999984,0.1599999999999966,0.1280000000000001,0.1039999999999992,0.06399999999999295,1.6575500963138194,0.47740433044765174,0.2148373556456991,0.17038425245004335,10.242381063514589,5.625458519154389,4.6169225443602
163,0.6000000000000085,0.6000000000000085,0.344,0.17600000000000854,0.15200000000000102,0.424,0.27199999999999896,0.11199999999999477,0.08799999999999386,0.0799999999999983,0.06399999999999295,0.055999999999997385,0.04800000000000182,0.02400000000000091,0.35999999999999943,0.13599999999999568,0.12000000000000455,0.09600000000000364,0.07200000000000273,0.06400000000000716,0.04000000000000625,0.4719999999999942,0.22399999999998954,0.20000000000000284,0.1599999999999966,0.1280000000000001,0.11200000000000898,0.06400000000000716,1.4819978727703689,0.1862953492581787,-0.05616262307282732,-0.0655365560147933,9.060633044332523,5.305199830328455,3.755433214004068
164,0.5999999999999943,0.5999999999999943,0.328,0.18399999999999433,0.15200000000000102,0.416,0.26399999999999896,0.11200000000000898,0.08800000000000807,0.0800000000000125,0.06400000000000716,0.04800000000000182,0.04000000000000625,0.02400000000000091,0.35999999999999943,0.1280000000000001,0.11199999999999477,0.08799999999999386,0.07199999999998852,0.055999999999997385,0.031999999999996476,0.4720000000000084,0.21600000000000819,0.19200000000000728,0.15200000000000102,0.11999999999999034,0.09600000000000364,0.055999999999997385,1.5089113932429399,0.3225281124439626,0.15038306548578328,0.12811723806017716,10.348211536946152,5.594760234350802,4.753451302595351
165,0.5840000000000032,0.5919999999999987,0.328,0.1760000000000032,0.15200000000000102,0.408,0.25599999999999895,0.11199999999999477,0.09600000000000364,0.08800000000000807,0.07200000000000273,0.055999999999997385,0.04800000000000182,0.031999999999996476,0.35999999999999943,0.23999999999999488,0.12000000000000455,0.08799999999999386,0.06399999999999295,0.055999999999997385,0.031999999999996476,0.4719999999999942,0.3359999999999985,0.20800000000001262,0.1599999999999966,0.11999999999999034,0.1039999999999992,0.06399999999999295,1.3237405730565808,0.1826930020760139,-0.10424411561899138,-0.11851044627323448,9.483503224950137,5.379331463252648,4.104171761697489
166,0.5919999999999987,0.5919999999999987,0.336,0.17599999999999877,0.1599999999999966,0.416,0.2560000000000034,0.12000000000000455,0.09600000000000364,0.08799999999999386,0.07200000000000273,0.06399999999999295,0.04800000000000182,0.031999999999996476,0.367999999999995,0.27200000000000557,0.12000000000000455,0.08799999999999386,0.06400000000000716,0.055999999999997385,0.031999999999996476,0.48799999999999955,0.3680000000000092,0.2079999999999984,0.1599999999999966,0.1280000000000001,0.1039999999999992,0.06399999999999295,1.4813902009516204,0.33142193631006067,0.026816475115416794,0.00849610095389075,27.89163189800096,13.418971186963901,14.472660711037058
167,0.5919999999999987,0.5999999999999943,0.336,0.16799999999999876,0.1599999999999966,0.424,0.2640000000000034,0.12000000000000455,0.09600000000000364,0.08799999999999386,0.07200000000000273,0.055999999999997385,0.04800000000000182,0.031999999999996476,0.35999999999999943,0.13599999999999568,0.12000000000000455,0.08800000000000807,0.06400000000000716,0.055999999999997385,0.031999999999996476,0.480000000000004,0.23199999999999932,0.2079999999999984,0.1600000000000108,0.12000000000000455,0.1039999999999992,0.06399999999999295,1.4534549536595311,0.3057697158318706,0.053465719841083614,0.04799758854783853,11.12656062768819,6.148660060969751,4.97790056671844
168,0.6080000000000041,0.6000000000000085,0.344,0.1760000000000041,0.16799999999999216,0.432,0.26400000000000784,0.11999999999999034,0.09599999999998943,0.08799999999999386,0.07199999999998852,0.055999999999997385,0.04799999999998761,0.031999999999996476,0.3680000000000092,0.26400000000001,0.12000000000000455,0.08800000000000807,0.06400000000000716,0.056000000000011596,0.03200000000001069,0.48799999999999955,0.35999999999999943,0.2079999999999984,0.1599999999999966,0.12000000000000455,0.1039999999999992,0.06400000000000716,1.4290685794823013,0.23733547712091868,-0.0017826608232309749,-0.01308398856302051,6.974620677635572,4.3097359104286355,2.664884767206937
169,0.5919999999999987,0.5919999999999987,0.328,0.16799999999999876,0.1599999999999966,0.424,0.2640000000000034,0.11199999999999477,0.09600000000000364,0.08800000000000807,0.07200000000000273,0.055999999999997385,0.04800000000000182,0.031999999999996476,0.367999999999995,0.2639999999999958,0.11199999999999477,0.08799999999999386,0.06399999999999295,0.055999999999997385,0.031999999999996476,0.47999999999998977,0.35999999999999943,0.20000000000000284,0.1599999999999966,0.11999999999999034,0.1039999999999992,0.06399999999999295,1.4506902202126644,0.2403738800823215,-0.024317930068144533,-0.0337660818330916,8.53162688255353,4.900326559873422,3.631300322680108
170,0.5919999999999987,0.5919999999999987,0.336,0.17599999999999877,0.1599999999999966,0.416,0.2560000000000034,0.11199999999999477,0.09600000000000364,0.08799999999999386,0.07200000000000273,0.055999999999997385,0.04800000000000182,0.031999999999996476,0.35999999999999943,0.13599999999999568,0.12000000000000455,0.08799999999999386,0.06399999999999295,0.055999999999997385,0.031999999999996476,0.4719999999999942,0.23199999999999932,0.2079999999999984,0.1599999999999966,0.11999999999999034,0.1039999999999992,0.06399999999999295,1.494608575071239,0.2931419301194149,-0.00135937637925998,-0.01401300482938972,7.12836112835514,4.410254386759799,2.7181067415953404
171,0.5919999999999987,0.5999999999999943,0.344,0.17599999999999877,0.1599999999999966,0.416,0.2560000000000034,0.12000000000000455,0.09600000000000364,0.08799999999999386,0.07200000000000273,0.055999999999997385,0.04800000000000182,0.031999999999996476,0.35999999999999943,0.14400000000000546,0.12000000000000455,0.08800000000000807,0.07200000000000273,0.055999999999997385,0.031999999999996476,0.480000000000004,0.2400000000000091,0.2079999999999984,0.1600000000000108,0.1280000000000001,0.1039999999999992,0.06399999999999295,1.5809601209866697,0.26658146206830174,-0.0464676959521948,-0.06770368163142482,9.113044686988916,5.399364677044859,3.7136800099440572
172,0.6080000000000041,0.6000000000000085,0.344,0.1840000000000041,0.16799999999999216,0.424,0.25600000000000783,0.11999999999999034,0.09599999999998943,0.08799999999999386,0.07199999999998852,0.055999999999997385,0.04799999999998761,0.031999999999996476,0.36000000000001364,0.1280000000000001,0.11200000000000898,0.08800000000000807,0.06400000000000716,0.056000000000011596,0.03200000000001069,0.480000000000004,0.22399999999998954,0.20000000000000284,0.1599999999999966,0.12000000000000455,0.1039999999999992,0.06400000000000716,1.7370973212479326,0.35640248524333135,0.09589820508624036,0.07079671557125666,10.878620519224562,6.023714369629671,4.854906149594891
173,0.5919999999999987,0.5919999999999987,0.336,0.17599999999999877,0.1599999999999966,0.416,0.2560000000000034,0.11199999999999477,0.09600000000000364,0.08800000000000807,0.07200000000000273,0.055999999999997385,0.04800000000000182,0.031999999999996476,0.35999999999999943,0.13599999999999568,0.12000000000000455,0.08799999999999386,0.06399999999999295,0.055999999999997385,0.031999999999996476,0.4719999999999942,0.23199999999999932,0.20800000000001262,0.1599999999999966,0.11999999999999034,0.1039999999999992,0.06399999999999295,1.611867845774183,0.25493514950631235,-0.04202224499054574,-0.060229987908985594,9.005220178354815,5.22563189663278,3.7795882817220345
174,0.5919999999999987,0.5919999999999987,0.336,0.17599999999999877,0.1599999999999966,0.416,0.2560000000000034,0.12000000000000455,0.09600000000000364,0.08799999999999386,0.07200000000000273,0.055999999999997385,0.04800000000000182,0.031999999999996476,0.35999999999999943,0.13599999999999568,0.11199999999999477,0.08799999999999386,0.06399999999999295,0.055999999999997385,0.031999999999996476,0.480000000000004,0.23199999999999932,0.19999999999998863,0.1599999999999966,0.11999999999999034,0.1039999999999992,0.06399999999999295,1.6801537513595701,0.33737774106973,0.0497925964497562,0.03265579346800074,12.102837512390737,6.575760964479284,5.527076547911453
175,0.5840000000000032,0.5919999999999987,0.36,0.1680000000000032,0.1599999999999966,0.416,0.2560000000000034,0.12000000000000455,0.09600000000000364,0.08799999999999386,0.07200000000000273,0.06399999999999295,0.04800000000000182,0.031999999999996476,0.35999999999999943,0.1599999999999966,0.13599999999999568,0.1039999999999992,0.0799999999999983,0.06400000000000716,0.04000000000000625,0.480000000000004,0.2560000000000002,0.22399999999998954,0.17600000000000193,0.14399999999999125,0.11200000000000898,0.07200000000000273,1.6242282679665558,0.28225806091306416,-0.0873138049234824,-0.09639936389700943,9.351163416997945,5.837267755128181,3.513895661869764
176,0.583999999999989,0.5760000000000076,0.328,0.18399999999998895,0.16799999999999216,0.4,0.23200000000000787,0.12000000000000455,0.09600000000000364,0.08799999999999386,0.07200000000000273,0.055999999999997385,0.04800000000000182,0.031999999999996476,0.3440000000000083,0.24800000000000466,0.1039999999999992,0.0799999999999983,0.055999999999997385,0.04800000000000182,0.02400000000000091,0.46400000000001285,0.3440000000000083,0.19199999999999307,0.15200000000000102,0.11199999999999477,0.09600000000000364,0.055999999999997385,1.7374615893334866,0.48095341364607846,0.15462469127013745,0.12273569095330572,10.388680867907953,5.771959060037198,4.616721807870754
177,0.6000000000000085,0.5999999999999943,0.336,0.17600000000000854,0.1600000000000108,0.424,0.2639999999999892,0.11200000000000898,0.09600000000000364,0.0800000000000125,0.06400000000000716,0.056000000000011596,0.04800000000000182,0.02400000000000091,0.37599999999999056,0.2639999999999958,0.11999999999999034,0.08799999999999386,0.07199999999998852,0.055999999999997385,0.03999999999999204,0.48799999999999955,0.35999999999999943,0.20000000000000284,0.15200000000000102,0.1280000000000001,0.1039999999999992,0.06399999999999295,1.5676501482683762,0.2982408395799001,0.010213691020029114,-0.012331566082140144,6.824575847212499,4.209896881897126,2.614678965315373
178,0.5919999999999987,0.5919999999999987,0.336,0.17599999999999877,0.1599999999999966,0.416,0.2560000000000034,0.11199999999999477,0.09600000000000364,0.08799999999999386,0.07200000000000273,0.055999999999997385,0.04800000000000182,0.031999999999996476,0.35999999999999943,0.13599999999999568,0.12000000000000455,0.08799999999999386,0.07200000000000273,0.055999999999997385,0.031999999999996476,0.4719999999999942,0.23199999999999932,0.2079999999999984,0.1599999999999966,0.1280000000000001,0.1039999999999992,0.06399999999999295,1.5529950371405459,0.2739266088949342,-0.011063145926369478,-0.027115779115904903,8.225909263684452,4.891313348124717,3.334595915559735
179,0.5999999999999943,0.5999999999999943,0.344,0.19199999999999434,0.1599999999999966,0.408,0.24800000000000338,0.12000000000000455,0.09600000000000364,0.08799999999999386,0.07200000000000273,0.055999999999997385,0.04800000000000182,0.031999999999996476,0.367999999999995,0.15200000000000102,0.1280000000000001,0.09600000000000364,0.07200000000000273,0.06400000000000716,0.031999999999996476,0.48799999999999955,0.24800000000000466,0.21599999999999397,0.16800000000000637,0.1280000000000001,0.11200000000000898,0.06399999999999295,1.6498314124636213,0.3586982554988763,0.04793969028147027,-0.002878475776776801,3.457918116945103,2.8755192560795955,0.5823988608655077
180,0.6000000000000085,0.6080000000000041,0.344,0.17600000000000854,0.1599999999999966,0.424,0.2640000000000034,0.11999999999999034,0.09599999999998943,0.08799999999999386,0.07199999999998852,0.055999999999997385,0.04799999999998761,0.031999999999996476,0.36000000000001364,0.1360000000000099,0.12000000000000455,0.08800000000000807,0.07200000000000273,0.056000000000011596,0.03200000000001069,0.480000000000004,0.23199999999999932,0.2079999999999984,0.1599999999999966,0.1280000000000001,0.1039999999999992,0.06400000000000716,1.640490144146181,0.28099420479018716,0.009522084778236573,-0.004277404268665852,4.200495095593807,3.179986883815971,1.0205082117778357
181,0.6079999999999899,0.6080000000000041,0.344,0.16799999999998988,0.16799999999999216,0.44,0.27200000000000785,0.11999999999999034,0.1039999999999992,0.09600000000000364,0.0799999999999983,0.06399999999999295,0.055999999999997385,0.031999999999996476,0.3680000000000092,0.1280000000000001,0.11200000000000898,0.08800000000000807,0.06400000000000716,0.055999999999997385,0.031999999999996476,0.48799999999999955,0.23199999999999932,0.20800000000001262,0.16800000000000637,0.1280000000000001,0.11199999999999477,0.06399999999999295,1.6878649130776233,0.34209219210294783,0.07570965544382868,0.07121680220824278,10.791095527906611,5.985705767416244,4.8053897604903675
