Index of pulse,Tu/Tpi,Tv/Tpi,Tw/Tpi,Ta/Tpi,Tb/Tpi,Tc/Tpi,Td/Tpi,Te/Tpi,Tf/Tpi,(Tu-Ta)/Tpi,(Tv-Tb)/Tpi,Au/Asp,Av/Au,Aw/Au,Ab/Aa,Ac/Aa,Ad/Aa,Ae/Aa,Af/Aa,Ap2/Ap1,(Ac-Ab)/Aa,(Ad-Ab)/Aa,AGI,AGImod,AGIinf,AI,RIp1,RIp2,SC,IPAD
1,0.15789473684210528,0.368421052631579,0.6052631578947368,0.06578947368421052,0.22368421052631582,0.2894736842105263,0.2894736842105263,0.47368421052631576,0.75,0.09333333333333334,0.14666666666666667,0.08724450334880328,-0.8537003619399409,-0.03162617707916462,-1.2980930184229549,-0.9858130546707948,-0.9858130546707948,0.5660496607771176,-0.16167313446729328,-0.12692290417209265,0.3122799637521601,0.3122799637521601,0.10748343014151716,0.6735330909186348,-1.8641426792000726,-1.0716309523270262,4.70091567015942,4.70091567015942,-0.06300965971044818,5.296146498658819
2,0.15068493150684928,0.3835616438356164,0.6164383561643835,0.0547945205479452,0.2328767123287671,0.31506849315068486,0.31506849315068486,0.49315068493150677,0.7534246575342465,0.09459459459459459,0.14864864864864866,0.15417677902885385,-0.6427146226446989,0.08554532182713685,-1.25348436219513,-0.7672526497915815,-0.7672526497915815,0.5621675077798663,-0.16495276080669183,-0.36853418397905996,0.48623171240354857,0.48623171240354857,-0.28114657039183344,0.2810209373880329,-1.8156518699749964,-1.2241134555343502,-0.36108542085883816,-0.36108542085883816,-0.02013517991764371,-3.3724791821180924
3,0.13333333333333336,0.3600000000000001,0.6133333333333335,0.053333333333333344,0.21333333333333337,0.2666666666666667,0.2666666666666667,0.46666666666666684,0.7333333333333335,0.08108108108108107,0.14864864864864863,0.13534292012087332,-0.5810192846124659,0.0039431718419025725,-1.1863789751918985,-0.9613384543085246,-0.9613384543085246,0.42700071378579624,-0.11194157658336981,-0.13804609007155544,0.22504052088337384,0.22504052088337384,0.3092972196393545,0.7362979334251507,-1.6133796889776946,-1.1304631647094483,-0.3392125091030024,-0.3392125091030024,-0.023440724233979936,-1.5771061921751888
4,0.15999999999999998,0.3733333333333333,0.6133333333333333,0.06666666666666665,0.22666666666666666,0.2933333333333333,0.2933333333333333,0.49333333333333323,0.7466666666666666,0.09333333333333335,0.1466666666666667,0.14045403857347058,-0.6185691657107207,0.08166974006484978,-1.3057484838617124,-0.9076613507712186,-0.9076613507712186,0.5329815966106596,-0.17839143062482965,-0.25356295932909023,0.3980871330904938,0.3980871330904938,-0.023407378929934906,0.5095742176807248,-1.8387300804723719,-1.2004130833347113,-0.3517513546754823,-0.3517513546754823,-0.027820076468336657,-7.824508048168796
5,0.14864864864864863,0.37837837837837834,0.5945945945945945,0.06756756756756756,0.22972972972972971,0.29729729729729726,0.29729729729729726,0.4864864864864864,0.6351351351351351,0.08108108108108106,0.14864864864864863,0.13358487383180914,-0.6536100129328017,0.018067144475451553,-1.3299391398063618,-0.9193124146624562,-0.9193124146624562,0.5455381836864441,-0.09508747582471848,-0.2629100787705983,0.41062672514390564,0.41062672514390564,-0.03685249416789359,0.5086856895185505,-1.875477323492806,-1.2004559587587182,0.14857085043695906,0.14857085043695906,-0.023840801319199387,-0.8278957017799804
6,0.14864864864864863,0.37837837837837834,0.6216216216216215,0.06756756756756756,0.22972972972972971,0.28378378378378377,0.28378378378378377,0.4864864864864864,0.7027027027027025,0.07999999999999997,0.14666666666666664,0.138263760648507,-0.5765669790019209,0.046300759576481956,-1.2022468469132526,-0.9362995026112624,-0.9362995026112624,0.4598925825891803,-0.12868052998329343,-0.15561141242072038,0.2659473443019903,0.2659473443019903,0.2104595757200918,0.6703521583092721,-1.662139429502433,-1.1432924098580464,-0.5613353925675837,-0.5613353925675837,-0.022479399436183847,-3.457785341403747
7,0.1333333333333333,0.3733333333333333,0.5999999999999999,0.05333333333333333,0.21333333333333332,0.35999999999999993,0.35999999999999993,0.47999999999999987,0.6799999999999998,0.0821917808219178,0.1643835616438356,0.14100938258380405,-0.6251392469967677,0.030945818534927578,-1.19609963991258,-0.1657224386867206,-0.1657224386867206,0.496561186202627,-0.07935979721516216,0.5689995864156621,1.0303772012258594,1.0303772012258594,-1.3612159487417659,-0.8646547625391389,-1.692660826115207,-0.4269489301968164,0.076946312189524,0.076946312189524,-0.021749925179607717,-4.335103067384139
8,0.1600000000000001,0.40000000000000024,0.6400000000000003,0.08000000000000004,0.24000000000000013,0.30666666666666687,0.30666666666666687,0.5066666666666669,0.7600000000000005,0.07792207792207796,0.15584415584415592,0.13026196544396879,-0.6412579719754334,0.08031480561068183,-1.2907521563959283,-0.9666798677749202,-0.9666798677749202,0.5572399044582242,-0.1861605474705851,-0.1853087359093079,0.32407228862100795,0.32407228862100795,0.08536767469568808,0.6426075791539123,-1.8479920608541525,-1.1493197299774334,-0.40779823424060796,-0.40779823424060796,-0.02273007178137982,3.2319531675529882
9,0.14864864864864874,0.3783783783783786,0.621621621621622,0.054054054054054085,0.22972972972972988,0.2972972972972975,0.2972972972972975,0.4729729729729733,0.7432432432432438,0.09589041095890402,0.15068493150684917,0.13919533483306126,-0.6505836760726328,0.052379854429653656,-1.3433691493292383,-0.893084098752124,-0.893084098752124,0.5252534261939812,-0.17886956735628304,-0.279082757751993,0.45028505057711427,0.45028505057711427,-0.08245437801897142,0.44279904817500976,-1.8686225755232193,-1.2037964989762404,0.030649121112447462,0.030649121112447462,-0.02153457403654626,-1.3549262352661402
10,0.16216216216216203,0.37837837837837807,0.621621621621621,0.06756756756756752,0.22972972972972955,0.3108108108108105,0.3108108108108105,0.486486486486486,0.7702702702702696,0.09459459459459466,0.14864864864864874,0.13613137345215215,-0.619189200843893,0.03897795182253784,-1.2614035032968391,-0.8482101152464695,-0.8482101152464695,0.514693304463262,-0.14185721202106985,-0.1863575121855218,0.4131933880503696,0.4131933880503696,-0.07967657726716208,0.4350167271960999,-1.7760968077601011,-1.1129655560761589,-0.3090246327964418,-0.3090246327964418,-0.02287030147318631,-2.982989926528326
11,0.15789473684210537,0.3815789473684213,0.6052631578947372,0.06578947368421056,0.22368421052631593,0.35526315789473706,0.35526315789473706,0.48684210526315813,0.7500000000000004,0.0933333333333334,0.1600000000000001,0.1333705514685749,-0.6541627629647183,0.036935993700227085,-1.2335036365489027,-0.34210947791825597,-0.34210947791825597,0.5687077474957548,-0.1422010627771614,0.7030965258882398,0.8913941586306466,0.8913941586306466,-1.1179924282081455,-0.5492846807123907,-1.8022113840446574,-0.29061018458061516,-0.03645579584300597,-0.03645579584300597,-0.02222235149441949,-0.2506213130008746
12,0.15999999999999986,0.3866666666666663,0.6399999999999995,0.06666666666666661,0.23999999999999977,0.30666666666666637,0.30666666666666637,0.5066666666666662,0.706666666666666,0.09210526315789466,0.14473684210526308,0.13377011722118426,-0.6250068750239269,0.06825455218276946,-1.356944625945095,-0.9433318882459771,-0.9433318882459771,0.49089636999473324,-0.19477030786495775,-0.24898617672766682,0.4136127376991178,0.4136127376991178,0.03882278055212613,0.5297191505468594,-1.8478409959398283,-1.1916195293545075,-0.027187794496105356,-0.027187794496105356,-0.020466721146433574,-1.1909140510654606
13,0.16216216216216225,0.3783783783783786,0.621621621621622,0.06756756756756761,0.22972972972972988,0.310810810810811,0.310810810810811,0.48648648648648674,0.7297297297297302,0.09459459459459466,0.14864864864864874,0.13028955142668014,-0.6691237390606372,0.05748157011845061,-1.360340062393655,-0.9201733101269767,-0.9201733101269767,0.5903313120493645,-0.17733855447673513,-0.22561721345570362,0.44016675226667834,0.44016675226667834,-0.11032475418906625,0.48000655786029833,-1.9506713744430195,-1.1353626251384037,0.0899712654200755,0.0899712654200755,-0.027589690630894396,-0.7761318724543382
14,0.14864864864864874,0.3783783783783786,0.621621621621622,0.06756756756756761,0.22972972972972988,0.2972972972972975,0.2972972972972975,0.48648648648648674,0.7162162162162167,0.08108108108108113,0.14864864864864874,0.135879185594211,-0.6425108417442916,0.05296320831478602,-1.28575880584832,-0.9428017202345962,-0.9428017202345962,0.5065551070386619,-0.15331201724643914,-0.24847734944289113,0.34295708561372384,0.34295708561372384,0.0932895275822105,0.5998446346208723,-1.7923139128869818,-1.1967948141100375,0.13401004236493172,0.13401004236493172,-0.02390141933881279,-0.667875112755054
15,0.14666666666666675,0.38666666666666694,0.6133333333333337,0.06666666666666671,0.22666666666666682,0.2933333333333335,0.2933333333333335,0.48000000000000026,0.7733333333333339,0.081081081081081,0.16216216216216203,0.1340747575614793,-0.6312290917272926,0.010847006966464956,-1.2321447084087762,-0.9403651486184346,-0.9403651486184346,0.5035236891367395,-0.11989383517162627,-0.19607927578994594,0.2917795597903416,0.2917795597903416,0.14506189969135352,0.6485855888280929,-1.7356683975455156,-1.1667039331459539,-0.28453308869083266,-0.28453308869083266,-0.024069352672258827,-9.04552366412216
16,0.1710526315789472,0.3947368421052628,0.6315789473684205,0.07894736842105256,0.23684210526315766,0.30263157894736814,0.30263157894736814,0.49999999999999956,0.7631578947368415,0.09090909090909095,0.15584415584415592,0.13139039748687587,-0.6487762475662869,0.04995010420660181,-1.378028683223174,-1.1206652522753529,-1.1206652522753529,0.6007526089442661,-0.18353476294782806,-0.2022331120306162,0.2573634309478212,0.2573634309478212,0.26254921238326556,0.8633018213275316,-1.9787812921674401,-1.1791122876698175,-0.24380579014360446,-0.24380579014360446,-0.027881538779962124,0.909225300592357
17,0.1600000000000001,0.3733333333333336,0.6133333333333337,0.06666666666666671,0.22666666666666682,0.30666666666666687,0.30666666666666687,0.48000000000000026,0.7333333333333337,0.0933333333333334,0.14666666666666675,0.13394292704756744,-0.6692850862202145,0.07682824419318375,-1.332669826499425,-0.9221636517494136,-0.9221636517494136,0.602057624194513,-0.17491279897469064,-0.2381792307669357,0.41050617475001133,0.41050617475001133,-0.09040014719511083,0.5116574769994022,-1.934727450693938,-1.1487846961510604,-0.040821971112533155,-0.040821971112533155,-0.027206689000457873,-1.1499832717377898
18,0.14864864864864852,0.37837837837837807,0.621621621621621,0.06756756756756752,0.22972972972972955,0.29729729729729704,0.29729729729729704,0.486486486486486,0.7432432432432425,0.081081081081081,0.14864864864864852,0.135849676942219,-0.656108034032184,0.0442044879880543,-1.2536729867846612,-0.9302792933035143,-0.9302792933035143,0.5227793333092052,-0.17168471366913957,-0.24700541530888806,0.3233936934811468,0.3233936934811468,0.08410626651316226,0.6068855998223676,-1.7764523200938664,-1.196566273575518,0.1165157323750209,0.1165157323750209,-0.02427440385787033,-0.7025878964848873
19,0.14666666666666675,0.3733333333333336,0.6133333333333337,0.06666666666666671,0.22666666666666682,0.30666666666666687,0.30666666666666687,0.48000000000000026,0.7466666666666671,0.08000000000000004,0.14666666666666675,0.1332604535467,-0.6280513225262148,0.027288431297427796,-1.2024380038956737,-0.7947316046370477,-0.7947316046370477,0.5169508838575682,-0.13289739244328366,-0.1814444974241016,0.4077063992586259,0.4077063992586259,-0.1299256784791463,0.38702520537842183,-1.7193888877532417,-1.1054561549821924,-0.23494199181839298,-0.23494199181839298,-0.02417032474582593,-0.985619988103186
20,0.15789473684210512,0.38157894736842074,0.6315789473684205,0.06578947368421047,0.2236842105263156,0.30263157894736814,0.30263157894736814,0.4736842105263153,0.7631578947368415,0.09210526315789466,0.15789473684210512,0.137351752548395,-0.650801017762295,0.029924898744735324,-1.2399611642024775,-0.8632667172066333,-0.8632667172066333,0.5350118855146647,-0.14635927019804573,-0.23846451190213577,0.3766944469958443,0.3766944469958443,-0.04843961530387577,0.48657227021078897,-1.7749730497171423,-1.168116057635194,-0.4430023282925251,-0.4430023282925251,-0.02587453349116284,0.07854858822806854
21,0.15789473684210512,0.36842105263157865,0.6052631578947363,0.07894736842105256,0.23684210526315766,0.30263157894736814,0.30263157894736814,0.4736842105263153,0.6842105263157888,0.07792207792207796,0.12987012987012997,0.13158379598105813,-0.6465273116726226,0.06968740835051296,-1.3320789527742183,-0.8648882128816708,-0.8648882128816708,0.5155459282165693,-0.13578946139276385,-0.19926259097169502,0.4671907398925474,0.4671907398925474,-0.11784845522744587,0.39769747298912345,-1.8476248809907876,-1.1205979322415989,0.10793837522300771,0.10793837522300771,-0.028060174271728362,-0.2975615476222305
22,0.13513513513513542,0.36486486486486563,0.5945945945945958,0.05405405405405417,0.21621621621621667,0.27027027027027084,0.27027027027027084,0.472972972972974,0.7027027027027042,0.08333333333333326,0.15277777777777762,0.1458326983725466,-0.6150833139140812,0.06347750428886971,-1.2128413550995636,-0.9495445798950864,-0.9495445798950864,0.49011540571376266,-0.21545576785867018,-0.2336011262997765,0.26329677520447703,0.26329677520447703,0.19613239897684676,0.6862478046906094,-1.7029567608133263,-1.2128428938706126,-0.07375480758340013,-0.07375480758340013,-0.022876711716149616,-1.4873194247762467
23,0.15999999999999961,0.38666666666666577,0.6133333333333318,0.06666666666666651,0.22666666666666616,0.2933333333333326,0.2933333333333326,0.4933333333333321,0.7733333333333315,0.0933333333333334,0.1600000000000001,0.13453589100977956,-0.6155393891947705,0.01158694659131467,-1.2396607528674117,-0.9819246767079942,-0.9819246767079942,0.5169355567119228,-0.1227874932496409,-0.18198378342994181,0.25773607615941735,0.25773607615941735,0.20725304383665402,0.7241886005485769,-1.7565963095793344,-1.1620839798370983,-0.1040155753935582,-0.1040155753935582,-0.02784938174937263,-0.6610107510141676
24,0.1710526315789477,0.39473684210526394,0.6315789473684223,0.0789473684210528,0.23684210526315835,0.30263157894736903,0.30263157894736903,0.500000000000001,0.7500000000000016,0.09090909090909095,0.15584415584415592,0.13512176130623665,-0.6176744337704881,0.04313369139651259,-1.3156307020862466,-0.9779404353564994,-0.9779404353564994,0.5066886669652897,-0.15778898586556495,-0.22076256502635183,0.33769026672974717,0.33769026672974717,0.1335615016614626,0.6402501686267523,-1.8223193690515362,-1.1860383015906015,-0.2751946514266207,-0.2751946514266207,-0.027809031417938588,0.297159870491455
25,0.1600000000000001,0.3733333333333336,0.6133333333333337,0.06666666666666671,0.22666666666666682,0.2933333333333335,0.2933333333333335,0.48000000000000026,0.7466666666666671,0.0909090909090907,0.14285714285714252,0.13531585631151608,-0.6355833204826202,0.07646628262323085,-1.328002684981363,-0.9705535958300824,-0.9705535958300824,0.5493670667035337,-0.17266895999370366,-0.21501212099065511,0.35744908915128065,0.35744908915128065,0.06373743997526796,0.6131045066788017,-1.8773697516848966,-1.1696297415068186,-0.2768434113735982,-0.2768434113735982,-0.027791462354523355,1.085433319276417
26,0.13333333333333303,0.35999999999999915,0.5866666666666652,0.039999999999999904,0.1999999999999995,0.34666666666666585,0.34666666666666585,0.4666666666666656,0.7333333333333316,0.09589041095890417,0.16438356164383572,0.1423480805778719,-0.6234011434556082,0.04551704648210484,-1.207173780116772,-0.1899420662083534,-0.1899420662083534,0.5192715799627603,-0.15744836747213126,0.6029462636187181,1.0172317139084186,1.0172317139084186,-1.3465612276628254,-0.8272896477000651,-1.7264453600795322,-0.38794365884912635,-0.03857861409827128,-0.03857861409827128,-0.027464804663131694,0.2503824625508001
27,0.14666666666666675,0.3733333333333336,0.6000000000000003,0.06666666666666671,0.21333333333333346,0.3600000000000002,0.3600000000000002,0.48000000000000026,0.7466666666666671,0.07894736842105278,0.1578947368421056,0.14036166276348755,-0.5935692249802164,0.050456032132197695,-1.154763791134096,-0.2037025205017099,-0.2037025205017099,0.5027988939131287,-0.17498754282255344,0.6434758607310797,0.9510612706323861,0.9510612706323861,-1.250157644043805,-0.7473587501306762,-1.6575626850472247,-0.35128654001085824,0.033616291297248746,0.033616291297248746,-0.023761122287270953,-0.18000014659253027
28,0.13157894736842093,0.36842105263157865,0.5921052631578941,0.052631578947368376,0.1973684210526314,0.3552631578947365,0.3552631578947365,0.4736842105263153,0.6578947368421048,0.08108108108108077,0.17567567567567502,0.14302691582705357,-0.5961185626209651,0.04480649498842435,-1.1143405003981728,-0.12388635637243499,-0.12388635637243499,0.4717743290345714,-0.11208509277174021,0.5622823703802873,0.990454144025738,0.990454144025738,-1.3383421166878744,-0.8665677876533029,-1.5861148294327443,-0.4317116075875698,0.11812190322623796,0.11812190322623796,-0.023621779765755812,1.7073030165781906
29,0.16000000000000056,0.38666666666666805,0.6266666666666689,0.08000000000000028,0.24000000000000082,0.30666666666666775,0.30666666666666775,0.49333333333333507,0.7200000000000025,0.07792207792207796,0.14285714285714296,0.13594051981051714,-0.6427662282966792,0.1024787627035953,-1.2951091044722323,-0.8928642864629355,-0.8928642864629355,0.5603631728233757,-0.18027903404888868,-0.22448402962215006,0.40224481800929673,0.40224481800929673,-0.06974370436973693,0.49061946845363874,-1.8554722772956076,-1.1651372563875122,-0.4739307211956466,-0.4739307211956466,-0.02684617513470472,0.11915501399947237
30,0.1466666666666663,0.37333333333333246,0.5999999999999985,0.053333333333333205,0.21333333333333282,0.35999999999999915,0.35999999999999915,0.4799999999999988,0.6933333333333317,0.09333333333333366,0.16000000000000056,0.13650402291163743,-0.6645998937049686,0.08853225024005704,-1.2840314559362933,-0.20017196079038002,-0.20017196079038002,0.6093323335608342,-0.17036427239250407,0.5859436348196277,1.0838594951459133,1.0838594951459133,-1.4930198679163675,-0.8836875343555333,-1.8933637894971276,-0.40233384399438354,0.002544016351221438,0.002544016351221438,-0.026476062915641727,0.17160893353888507
31,0.13513513513513542,0.3783783783783792,0.6081081081081093,0.05405405405405417,0.20270270270270313,0.33783783783783855,0.33783783783783855,0.472972972972974,0.770270270270272,0.08108108108108077,0.17567567567567502,0.13834455890901906,-0.6217572213795538,0.020719634123481264,-1.1218639590135127,-0.32998874608784284,-0.32998874608784284,0.4917636655167619,-0.12520875238730905,0.7333799258453249,0.7918752129256699,0.7918752129256699,-0.953650132354589,-0.461886466837827,-1.6136276245302748,-0.2632174282002354,-0.006914474989673672,-0.006914474989673672,-0.022022876932067448,-0.034726195901452594
32,0.14473684210526302,0.36842105263157865,0.6052631578947363,0.052631578947368376,0.2105263157894735,0.3552631578947365,0.3552631578947365,0.4736842105263153,0.710526315789473,0.09333333333333366,0.16000000000000056,0.1374007397995941,-0.6143689198731754,0.031045691247423526,-1.2431312158238812,-0.2032046832130912,-0.2032046832130912,0.5159374019523234,-0.09890127468266291,0.6071128723605191,1.03992653261079,1.03992653261079,-1.3526592513500222,-0.8367218493976988,-1.7590686177762045,-0.39152929192903024,0.009917936414666085,0.009917936414666085,-0.028359462784730123,-0.03844883374831959
33,0.14285714285714293,0.36363636363636387,0.5974025974025977,0.06493506493506497,0.2207792207792209,0.28571428571428586,0.28571428571428586,0.46753246753246774,0.6883116883116887,0.07894736842105256,0.14473684210526302,0.13027539152296178,-0.6447854341831255,0.042918105108317686,-1.3045750033854366,-0.9497888416971507,-0.9497888416971507,0.5471575237038069,-0.12372192068889594,-0.218309831247515,0.35478616168828603,0.35478616168828603,0.047845156305057826,0.5950026800088647,-1.8517325270892435,-1.1736547346768154,-0.15832219625287175,-0.15832219625287175,-0.026096001458435773,-1.5584480274151562
34,0.16216216216216153,0.3918918918918904,0.6216216216216192,0.08108108108108077,0.24324324324324229,0.36486486486486347,0.36486486486486347,0.49999999999999806,0.7027027027027,0.07894736842105256,0.14473684210526308,0.13363911266831874,-0.6651110675018667,0.07501074719010273,-1.2628783765529963,-0.3833622556244703,-0.3833622556244703,0.6086904602309499,-0.16650747488869888,0.7146266433102935,0.8795161209285259,0.8795161209285259,-1.1048443255350056,-0.4961538653040557,-1.871568836783946,-0.281204011443562,0.05482839260706049,0.05482839260706049,-0.026674869839551456,-3.0824446770702325
35,0.14666666666666717,0.38666666666666805,0.6266666666666689,0.053333333333333524,0.2133333333333341,0.3466666666666679,0.3466666666666679,0.48000000000000165,0.733333333333336,0.09459459459459478,0.17567567567567607,0.13841940812435402,-0.6337798712274137,0.045031504442231085,-1.2437524305200478,-0.33274855524173685,-0.33274855524173685,0.5387669833247077,-0.1483045078137027,0.6953378032219909,0.9110038752783111,0.9110038752783111,-1.117022303361282,-0.5782553200365742,-1.7825194138447555,-0.30395056193921777,0.003822236846786907,0.003822236846786907,-0.0252152554987011,-0.5313044875000246
36,0.14473684210526302,0.38157894736842074,0.6184210526315784,0.06578947368421047,0.2236842105263156,0.3289473684210524,0.3289473684210524,0.4736842105263153,0.7631578947368415,0.07999999999999981,0.15999999999999961,0.1317962617859909,-0.6670393081331051,0.01853020886324408,-1.1491421313943055,-0.5373538597081191,-0.5373538597081191,0.5443904377720329,-0.139732309935637,0.8301200653316397,0.6117882716861864,0.6117882716861864,-0.6188248497501003,-0.07443441197806741,-1.6935325691663383,-0.1688347070079451,-0.03762644694203233,-0.03762644694203233,-0.024714225557260036,-0.025191775496868574
37,0.15789473684210512,0.38157894736842074,0.6184210526315784,0.06578947368421047,0.2236842105263156,0.3421052631578944,0.3421052631578944,0.48684210526315747,0.7368421052631573,0.09090909090909097,0.15584415584415592,0.13709648443299233,-0.6281562143033116,0.05398781800506717,-1.1661819965862223,-0.4635219416430815,-0.4635219416430815,0.5477834336675012,-0.15232010149869785,0.7981697240690462,0.702660054943141,0.702660054943141,-0.7869215469675606,-0.2391381133000594,-1.7139654302537237,-0.1986228834099921,0.058401379477465404,0.058401379477465404,-0.025518268274337577,1.2658769387411564
38,0.1466666666666663,0.37333333333333246,0.5999999999999985,0.053333333333333205,0.22666666666666616,0.2933333333333326,0.2933333333333326,0.4666666666666656,0.6933333333333317,0.0933333333333331,0.1466666666666663,0.13408320628587986,-0.6613872204132342,0.07275359613428434,-1.237235718290434,-0.8698037180500374,-0.8698037180500374,0.5589244224898585,-0.1626049362453662,-0.21978691975432127,0.3674320002403968,0.3674320002403968,-0.05655270468021789,0.5023717178096406,-1.7961601407802927,-1.1587091084919225,-0.28564245495491075,-0.28564245495491075,-0.0247017297819591,0.8473876453758894
39,0.14864864864864896,0.3783783783783792,0.6216216216216229,0.05405405405405417,0.22972972972973024,0.33783783783783855,0.33783783783783855,0.472972972972974,0.7432432432432449,0.09459459459459478,0.14864864864864896,0.13801489598725147,-0.648454582839968,0.04014313896566551,-1.218247900617587,-0.5156797658989625,-0.5156797658989625,0.5357129646325073,-0.19616621496088707,0.825383352734193,0.7025681347186246,0.7025681347186246,-0.7226013334521695,-0.18688836881966214,-1.7539608652500944,-0.16758047970709758,-0.005628825461550042,-0.005628825461550042,-0.022865516987687476,-0.21846815941601672
40,0.14666666666666717,0.38666666666666805,0.6133333333333355,0.053333333333333524,0.2133333333333341,0.3466666666666679,0.3466666666666679,0.49333333333333507,0.7200000000000025,0.09459459459459478,0.17567567567567607,0.13417417441541468,-0.6227235548455934,0.048397676948594544,-1.1941899965223104,-0.40339447065590117,-0.40339447065590117,0.552205664777797,-0.16378379009787372,0.7583061273671559,0.7907955258664091,0.7907955258664091,-0.9396067199883049,-0.387401055210508,-1.7463956613001075,-0.23948418380636705,0.003989279220961159,0.003989279220961159,-0.0241966831273154,-0.18004276432565908
41,0.16438356164383472,0.4109589041095868,0.6164383561643801,0.08219178082191736,0.24657534246575205,0.3424657534246557,0.3424657534246557,0.5068493150684904,0.6849315068493114,0.08219178082191786,0.16438356164383572,0.1345952728838583,-0.7306406873757072,0.09902409002944469,-1.2328865523925228,-0.699241982189613,-0.699241982189613,0.7468223096628288,-0.17927167953668258,0.8766598535203718,0.5336445702029098,0.5336445702029098,-0.5812248976761255,0.16559741198670322,-1.9797088620553516,-0.12214496155711096,0.05083918381667437,0.05083918381667437,-0.027026703997120326,0.3514177434511503
42,0.16000000000000056,0.38666666666666805,0.6000000000000021,0.0666666666666669,0.24000000000000082,0.30666666666666775,0.30666666666666775,0.48000000000000165,0.6666666666666691,0.09210526315789466,0.14473684210526308,0.13103245143384593,-0.6659832386438589,0.06409175641981489,-1.3897595562090292,-0.9938883224763396,-0.9938883224763396,0.6347274539742496,-0.14830207675847246,-0.1619087799166571,0.39587123373268956,0.39587123373268956,-0.03671036523059952,0.5980170887436501,-2.024487010183279,-1.1055164090094522,-0.2162487759462136,-0.2162487759462136,-0.02648804775068894,-0.3250138368456179
43,0.14864864864864807,0.3783783783783769,0.6081081081081057,0.05405405405405384,0.21621621621621537,0.35135135135135,0.35135135135135,0.4729729729729712,0.7432432432432403,0.09459459459459421,0.16216216216216153,0.14596608465534142,-0.61775433048422,0.015836258417175435,-1.1902441693206764,-0.3121682318793042,-0.3121682318793042,0.5132387432405676,-0.10209293041452629,0.6948007815437959,0.8780759374413721,0.8780759374413721,-1.0791464488026354,-0.5659077055620679,-1.7034829125612438,-0.29952883302505695,0.15080946550923713,0.15080946550923713,-0.023345754559927937,0.6609046030230372
44,0.14666666666666717,0.38666666666666805,0.6000000000000021,0.053333333333333524,0.2133333333333341,0.33333333333333454,0.33333333333333454,0.48000000000000165,0.7200000000000025,0.09333333333333366,0.17333333333333398,0.13514813093908506,-0.6303516246119387,0.03603368414525875,-1.1596169336356965,-0.5029585148215505,-0.5029585148215505,0.5589737613463256,-0.13470451893649038,0.8202640745280546,0.6566584188141459,0.6566584188141459,-0.712673665338921,-0.15369990399259537,-1.718590694982022,-0.17792405969642622,0.08762700736545977,0.08762700736545977,-0.022749315903150078,0.7433437249279624
45,0.14473684210526302,0.38157894736842074,0.6184210526315784,0.052631578947368376,0.2105263157894735,0.3421052631578944,0.3421052631578944,0.4736842105263153,0.7368421052631573,0.0933333333333331,0.17333333333333295,0.13419109308130805,-0.6479513506447585,0.03129760601863784,-1.1671072844681625,-0.36624015839514545,-0.36624015839514545,0.5042207916278983,-0.12633774233270909,0.7270972729663269,0.8008671260730169,0.8008671260730169,-0.9388477593057699,-0.43462696767787146,-1.6713280760960607,-0.2689600452939658,0.0024998373973506216,0.0024998373973506216,-0.02315556678232646,-0.16424184214108428
46,0.15999999999999961,0.38666666666666577,0.6133333333333318,0.06666666666666651,0.2399999999999994,0.31999999999999923,0.31999999999999923,0.5066666666666655,0.6799999999999984,0.09210526315789466,0.14473684210526308,0.13505069953929344,-0.682245382844119,0.1737053167382904,-1.307117911141166,-0.8215962550989051,-0.8215962550989051,0.6902696059711224,-0.26121678804632587,-0.2809500513551265,0.48552165604226083,0.48552165604226083,-0.35419500691447825,0.3360745990566442,-1.9973875171122881,-1.157731042248845,-0.6739637300616464,-0.6739637300616464,-0.02486831227928532,0.052151683049957875
47,0.14666666666666717,0.3733333333333347,0.6000000000000021,0.0666666666666669,0.2266666666666675,0.30666666666666775,0.30666666666666775,0.4666666666666684,0.7466666666666694,0.08108108108108124,0.14864864864864896,0.1297366082885043,-0.7087421887243684,0.061029012737280654,-1.2665635012142797,-0.8059858437950659,-0.8059858437950659,0.5785582919222922,-0.16903227013909475,-0.28005810681671695,0.4605776574192138,0.4605776574192138,-0.23315010554644014,0.3454081863758521,-1.845121793136572,-1.1584683210606388,0.4471666598570759,0.4471666598570759,-0.022408684891159488,-0.10480264030452591
48,0.15999999999999961,0.38666666666666577,0.6133333333333318,0.06666666666666651,0.22666666666666616,0.35999999999999915,0.35999999999999915,0.4933333333333321,0.6933333333333317,0.09210526315789466,0.15789473684210512,0.13657508964049006,-0.6163248721474618,0.042163374057207596,-1.185388631139473,-0.37053800416210864,-0.37053800416210864,0.5368498556400352,-0.12883200243390372,0.733409663069313,0.8148506269773644,0.8148506269773644,-0.981162478455291,-0.4443126228152558,-1.7222384867795084,-0.26319812861884007,0.1221589984962634,0.1221589984962634,-0.02233744302332614,0.6185786310581936
49,0.14473684210526302,0.36842105263157865,0.6052631578947363,0.052631578947368376,0.2105263157894735,0.3421052631578944,0.3421052631578944,0.46052631578947334,0.7631578947368415,0.09333333333333366,0.16000000000000056,0.13679810419769933,-0.6502203426090931,0.03584595420711717,-1.1797139840562534,-0.3632062018703626,-0.3632062018703626,0.5214205205996881,-0.14824478742384578,0.710306975233301,0.8165077821858908,0.8165077821858908,-0.9747221009152163,-0.4533015803155282,-1.7011345046559416,-0.28508158932919947,0.011824724122160778,0.011824724122160778,-0.020877923121608615,-0.15272883285090627
50,0.15789473684210606,0.38157894736842296,0.618421052631582,0.07894736842105303,0.23684210526315905,0.3026315789473699,0.3026315789473699,0.4868421052631603,0.7105263157894772,0.07792207792207752,0.14285714285714216,0.1290457262967802,-0.6575814301588774,0.05977125219802506,-1.3005299293276056,-0.9445400238040179,-0.9445400238040179,0.5617473028635874,-0.14487527614374848,-0.19976297103953708,0.3559899055235876,0.3559899055235876,0.026802815416842887,0.5885501182804304,-1.8622772321911931,-1.1497268197545305,-0.12172118317343207,-0.12172118317343207,-0.025706352684456004,-0.5968014509025407
51,0.14864864864864807,0.3783783783783769,0.6081081081081057,0.06756756756756731,0.22972972972972885,0.29729729729729615,0.29729729729729615,0.48648648648648457,0.6756756756756731,0.08108108108108124,0.14864864864864896,0.1388591969645655,-0.6626831960804699,0.05794431878060311,-1.3003395180253772,-0.8814985761582942,-0.8814985761582942,0.5557454053129686,-0.1129346519635436,-0.28721185976600827,0.418840941867083,0.418840941867083,-0.09308777102175725,0.46265763429121126,-1.8560849233383458,-1.2146489600252266,-0.014742704023630641,-0.014742704023630641,-0.026824887135989742,-0.43926311272263585
52,0.15789473684210512,0.38157894736842074,0.6052631578947363,0.06578947368421047,0.2236842105263156,0.28947368421052605,0.28947368421052605,0.48684210526315747,0.7499999999999993,0.09210526315789466,0.15789473684210512,0.13196451396581524,-0.6333650111760943,0.040126184574343325,-1.298386745438423,-1.0317743787170588,-1.0317743787170588,0.5375387446772546,-0.1322279091842055,-0.19675475393356923,0.26661236672136424,0.26661236672136424,0.22762326731843988,0.7651620119956944,-1.8359254901156776,-1.1708518101244278,-0.2331370037498575,-0.2331370037498575,-0.028021193291793915,-1.7508309165539666
53,0.14473684210526302,0.36842105263157865,0.6052631578947363,0.06578947368421047,0.2236842105263156,0.36842105263157865,0.36842105263157865,0.46052631578947334,0.6578947368421048,0.07894736842105256,0.14473684210526302,0.13180262189070693,-0.6855513896820404,0.016522305206470404,-1.2198637393773144,-0.19519207737916397,-0.19519207737916397,0.5543257938518703,-0.049985895863350484,-0.4151542584032695,1.0246716619981504,1.0246716619981504,-1.3838053784708568,-0.8294795846189865,-1.7741895332291848,-0.7899844111211387,-0.20525541165225697,-0.20525541165225697,-0.02556326601145416,1.9008487143027075
54,0.15789473684210512,0.36842105263157865,0.6184210526315784,0.06578947368421047,0.2236842105263156,0.28947368421052605,0.28947368421052605,0.48684210526315747,0.710526315789473,0.09090909090909097,0.14285714285714293,0.13469966081501691,-0.5993173795930238,0.062286212507458805,-1.3096208496094877,-1.0091813874318256,-1.0091813874318256,0.4881947279089316,-0.1439735745265354,-0.2015479963045024,0.3004394621776621,0.3004394621776621,0.220547197345232,0.7087419252541636,-1.7978155775184192,-1.1716321057642396,-0.5151031601040695,-0.5151031601040695,-0.026284109119335035,-0.15496338631844897
55,0.14473684210526386,0.36842105263158076,0.5789473684210554,0.06578947368421086,0.21052631578947473,0.3421052631578964,0.3421052631578964,0.4736842105263181,0.7236842105263194,0.07999999999999981,0.15999999999999961,0.13379948892352314,-0.6617924501463401,0.05569214875468656,-1.198488924272538,-0.3363732560921782,-0.3363732560921782,0.6075821701417278,-0.132720138756231,0.7014879883104301,0.8621156681803599,0.8621156681803599,-1.1333245822299094,-0.5257424120881817,-1.806071094414266,-0.29275405896002804,-0.03059460138717544,-0.03059460138717544,-0.024898950834428345,0.34337462040334515
56,0.1466666666666663,0.38666666666666577,0.6133333333333318,0.06666666666666651,0.22666666666666616,0.34666666666666585,0.34666666666666585,0.4799999999999988,0.706666666666665,0.08000000000000075,0.16000000000000153,0.14039871750307434,-0.6381819794634344,0.06525369707051959,-1.2210160987641336,-0.3532470323693804,-0.3532470323693804,0.5371917596800105,-0.17465767696460688,0.7231223591168985,0.8677690663947533,0.8677690663947533,-1.0517137937053833,-0.5145220340253729,-1.758207858444144,-0.2733924939969794,-0.008885903074710337,-0.008885903074710337,-0.02355483254567099,0.27628528812320785
57,0.15584415584415592,0.3896103896103898,0.5974025974025977,0.06493506493506497,0.2207792207792209,0.3506493506493508,0.3506493506493508,0.48051948051948074,0.7402597402597407,0.09090909090909097,0.1688311688311689,0.13143098023736888,-0.6275054885916137,0.01963380091433267,-1.2046092802688304,-0.33339890957241963,-0.33339890957241963,0.536625520746262,-0.11913803213447302,0.7184523325270876,0.8712103706964108,0.8712103706964108,-1.0744369818702533,-0.5378114611239913,-1.7412348010150926,-0.2813923292519213,0.010774950400987448,0.010774950400987448,-0.028014976389459833,0.3308876011150235
58,0.14285714285714293,0.37662337662337686,0.5974025974025977,0.05194805194805198,0.20779220779220792,0.33766233766233783,0.33766233766233783,0.46753246753246774,0.7402597402597407,0.09210526315789411,0.17105263157894623,0.14212515885005927,-0.62875369874807,0.05589297116096058,-1.170459786138032,-0.3834310611047465,-0.3834310611047465,0.5519665592714393,-0.11881569072971176,0.7306930827552813,0.7870287250332854,0.7870287250332854,-0.9555642231999781,-0.4035976639285388,-1.7224263454094713,-0.2662556292032095,0.20836814681772686,0.20836814681772686,-0.02320285154256077,0.4443648687632769
59,0.15584415584415592,0.37662337662337686,0.5974025974025977,0.07792207792207796,0.23376623376623387,0.31168831168831185,0.31168831168831185,0.48051948051948074,0.6753246753246757,0.07692307692307664,0.14102564102564052,0.1269827558456083,-0.6778777794609705,0.0642826477565594,-1.3192618312940985,-0.8758309620627989,-0.8758309620627989,0.5960431546493964,-0.1361382976362068,-0.1992270422917128,0.4434308692312996,0.4434308692312996,-0.16364306181789712,0.43240009283149927,-1.9153049859434947,-1.1043155082849205,-0.2663056466910802,-0.2663056466910802,-0.027463686249167295,-0.47312800531034327
60,0.1466666666666663,0.37333333333333246,0.5999999999999985,0.06666666666666651,0.22666666666666616,0.2933333333333326,0.2933333333333326,0.4799999999999988,0.7466666666666649,0.08000000000000075,0.14666666666666806,0.13861040814577474,-0.6471293445404782,0.039841802974849634,-1.2572032560508348,-0.905413474685172,-0.905413474685172,0.5274914306332926,-0.1272727750718997,-0.25162967672698855,0.3517897813656628,0.3517897813656628,0.026132262686216455,0.5536236933195091,-1.7846946866841273,-1.1945957916729955,-0.24487228118351068,-0.24487228118351068,-0.024013780807253794,0.293323133820537
61,0.14473684210526386,0.36842105263158076,0.6052631578947398,0.06578947368421086,0.2236842105263169,0.2763157894736856,0.2763157894736856,0.4736842105263181,0.6710526315789507,0.07894736842105209,0.14473684210526216,0.13482021268058372,-0.6130806899259426,0.033536570984882226,-1.2410551758840755,-0.9774730413479148,-0.9774730413479148,0.4853435770917849,-0.08826189807128144,-0.19918620788134006,0.26358213453616075,0.26358213453616075,0.22854732971996922,0.7138909068117542,-1.7263987529758604,-1.183515091530514,-0.25925949043095836,-0.25925949043095836,-0.02291364609554909,-0.8429461026415723
62,0.14285714285714293,0.37662337662337686,0.5974025974025977,0.06493506493506497,0.2207792207792209,0.2727272727272729,0.2727272727272729,0.46753246753246774,0.7532467532467537,0.07792207792207796,0.15584415584415592,0.13291347319759497,-0.626313032343408,0.01224855230596476,-1.2689811452377497,-1.012737972293561,-1.012737972293561,0.48626790884393173,-0.08995123092095794,-0.2142945796278706,0.2562431729441886,0.2562431729441886,0.27022689050544074,0.7564947993493725,-1.7552490540816814,-1.200463652942555,-0.16281937247152561,-0.16281937247152561,-0.025708445304110473,-0.46658976509034444
63,0.1410256410256405,0.3717948717948704,0.5897435897435875,0.06410256410256386,0.21794871794871715,0.34615384615384487,0.34615384615384487,0.47435897435897256,0.7307692307692281,0.07692307692307662,0.15384615384615327,0.13741051827205494,-0.5958570887971744,0.06433658373982859,-1.2627308559780788,-0.24323827798756012,-0.24323827798756012,0.5316724102230846,-0.13747666289926624,0.6711109521571024,1.0194925779905188,1.0194925779905188,-1.3079267102260432,-0.7762543000029586,-1.7944032662011635,-0.3253339507471675,0.10729860985299039,0.10729860985299039,-0.024635127123976565,0.8712822844212964
64,0.14285714285714293,0.36363636363636387,0.5844155844155847,0.06493506493506497,0.2207792207792209,0.3506493506493508,0.3506493506493508,0.46753246753246774,0.6753246753246757,0.07792207792207796,0.14285714285714293,0.13196115852934853,-0.6568297952478963,0.07668523866502502,-1.2394866198813075,-0.2929785524677077,-0.2929785524677077,0.5980887903445847,-0.15052211734276974,0.6742592976354874,0.9465080674135997,0.9465080674135997,-1.2516183052904766,-0.653529514945892,-1.8375754102258923,-0.31446034240147663,0.07608525794782862,0.07608525794782862,-0.025934366471955912,0.30401644272931
65,0.1466666666666663,0.37333333333333246,0.5999999999999985,0.06666666666666651,0.22666666666666616,0.34666666666666585,0.34666666666666585,0.4666666666666656,0.7199999999999983,0.08000000000000075,0.14666666666666806,0.13907880817749196,-0.6576955236042575,0.04088456409233984,-1.1967291139326293,-0.381061239482969,-0.381061239482969,0.5286101444874051,-0.11567231854938798,0.7376179263205681,0.8156678744496604,0.8156678744496604,-0.9632167794540965,-0.4346066349666914,-1.7253392584200344,-0.2517170277238349,0.02872197157176174,0.02872197157176174,-0.024983822704625794,-0.04490877506127183
66,0.14285714285714293,0.37662337662337686,0.5974025974025977,0.06493506493506497,0.2207792207792209,0.3506493506493508,0.3506493506493508,0.46753246753246774,0.7662337662337666,0.07792207792207796,0.15584415584415592,0.13140951022601483,-0.6354986512205364,0.015686614672147624,-1.1955652249857462,-0.3070339823851548,-0.3070339823851548,0.5167409145192357,-0.08996797769597527,0.7070485146461033,0.8885312426005915,0.8885312426005915,-1.0982381747346723,-0.5814972602154367,-1.712306139504982,-0.28554814088572134,0.11842490504812214,0.11842490504812214,-0.024232313102980494,-3.4934084512022423
67,0.1410256410256405,0.35897435897435764,0.5897435897435875,0.05128205128205109,0.20512820512820437,0.2692307692307682,0.2692307692307682,0.4615384615384598,0.7564102564102535,0.0897435897435894,0.15384615384615327,0.1375997829018153,-0.6303863213042091,0.043496742673919994,-1.2341890888627343,-1.0112619814662034,-1.0112619814662034,0.536474625741181,-0.10602347986944212,-0.23495325629438382,0.222927107396531,0.222927107396531,0.25186024832849135,0.7883348740696724,-1.7706637146039153,-1.2145992131026062,-0.31449495209197076,-0.31449495209197076,-0.023636614961844805,0.06750469630098244
68,0.15384615384615502,0.37179487179487464,0.6025641025641072,0.0641025641025646,0.21794871794871964,0.2820512820512842,0.2820512820512842,0.47435897435897795,0.6794871794871846,0.08974358974358941,0.15384615384615327,0.132546866916313,-0.6243825675694239,0.07262823914901526,-1.323782065438912,-1.0086185090359197,-1.0086185090359197,0.5442169761868277,-0.1436070102274023,-0.19958312003126474,0.3151635564029925,0.3151635564029925,0.14923797644609935,0.6934549526329271,-1.86799904162574,-1.1691240282500306,-0.4172144558907392,-0.4172144558907392,-0.02784183737791465,-0.03558515781569316
69,0.14473684210526216,0.3684210526315765,0.5921052631578907,0.06578947368421008,0.2236842105263143,0.28947368421052433,0.28947368421052433,0.47368421052631254,0.749999999999995,0.07894736842105302,0.14473684210526386,0.1325251972803294,-0.6763185742399527,0.055196835223216306,-1.3008141401598485,-0.9445658181957456,-0.9445658181957456,0.6012645223131068,-0.12928973370055002,-0.25565311057994067,0.356248321964103,0.356248321964103,-0.012947026081464155,0.5883174962316426,-1.9020786624729553,-1.1990456072140891,-0.03859381877791808,-0.03859381877791808,-0.025342772651444894,-0.2776669656786338
70,0.14473684210526386,0.38157894736842296,0.6052631578947398,0.06578947368421086,0.21052631578947473,0.3421052631578964,0.3421052631578964,0.4736842105263181,0.7500000000000038,0.07894736842105209,0.17105263157894623,0.13930509893602125,-0.6235784218969219,0.04140246271616824,-1.1273283907053695,-0.3401067151847767,-0.3401067151847767,0.514114795637808,-0.11662466218601784,0.7324579840045935,0.7872216755205929,0.7872216755205929,-0.9612297559736241,-0.44711496033581616,-1.6414431863431775,-0.26414572459435665,0.05871006615866362,0.05871006615866362,-0.02170169890424178,-0.11513420712173181
71,0.1392405063291144,0.36708860759493794,0.5822784810126601,0.06329113924050654,0.20253164556962094,0.329113924050634,0.329113924050634,0.45569620253164705,0.6455696202531667,0.07594936708860783,0.16455696202531703,0.13234135798659052,-0.61012675700583,0.018430124628095203,-1.105329528275116,-0.38371944656096946,-0.38371944656096946,0.49836917401408065,-0.09786929027741037,0.7734215243459004,0.7216100817141465,0.7216100817141465,-0.8362598091672577,-0.33789063515317713,-1.6036987022891966,-0.22497925364292948,0.08835560951570422,0.08835560951570422,-0.02472726312291643,0.33020675229168595
72,0.14285714285714293,0.37662337662337686,0.5974025974025977,0.06493506493506497,0.2207792207792209,0.28571428571428586,0.28571428571428586,0.46753246753246774,0.7662337662337666,0.07894736842105302,0.15789473684210606,0.1392591345581657,-0.6140400525712244,0.02644234729942447,-1.218282511132118,-0.9157130078380693,-0.9157130078380693,0.5068930650624944,-0.1252339627798984,-0.1799411533224287,0.30256950329404875,0.30256950329404875,0.10625043948152618,0.6131435045440206,-1.7251755761946124,-1.1514734365531532,-0.8217069581949875,-0.8217069581949875,-0.024126328374789417,-0.1402224324351533
73,0.16666666666666605,0.3717948717948704,0.6025641025641003,0.07692307692307664,0.2307692307692299,0.29487179487179377,0.29487179487179377,0.48717948717948534,0.679487179487177,0.08749999999999991,0.1374999999999999,0.12960127024791096,-0.6575686230762595,0.07987995900448519,-1.4077952799739208,-1.1148840178312498,-1.1148840178312498,0.6064003768771264,-0.1713491312042821,-0.20704972659336313,0.29291126214267105,0.29291126214267105,0.21557237881145228,0.8219727556885786,-2.0141956568510473,-1.168530933699528,-0.4465286774007794,-0.4465286774007794,-0.028379382384714873,-0.08557248842985832
74,0.14473684210526216,0.3684210526315765,0.5921052631578907,0.06578947368421008,0.21052631578947228,0.35526315789473445,0.35526315789473445,0.4605263157894706,0.736842105263153,0.07894736842105209,0.1578947368421042,0.13499778660594045,-0.6689120226326455,0.05127302516648616,-1.2083805348502263,-0.1905089845128193,-0.1905089845128193,0.5435619650337592,-0.1211908379789793,0.5901495585710386,1.0178715503374072,1.0178715503374072,-1.370924530858347,-0.8273625658245879,-1.7519424998839856,-0.39880894919412396,-0.10300798246638482,-0.10300798246638482,-0.0259809118932505,0.5645920536980663
75,0.14285714285714293,0.37662337662337686,0.5974025974025977,0.05194805194805198,0.20779220779220792,0.3246753246753249,0.3246753246753249,0.46753246753246774,0.7142857142857146,0.09210526315789519,0.17105263157894823,0.1375343524723011,-0.6109789918204407,0.02450057219432244,-1.1620622209681595,-0.39939214268699114,-0.39939214268699114,0.5007950232685098,-0.11703066942150617,0.7844928940717953,0.7626700782811683,0.7626700782811683,-0.864072958862687,-0.3632779355941772,-1.6628572442366691,-0.2152236668330562,0.06616091213686164,0.06616091213686164,-0.024801301301574975,-2.1415696895421696
76,0.1410256410256421,0.37179487179487464,0.5897435897435942,0.051282051282051676,0.2051282051282067,0.33333333333333587,0.33333333333333587,0.47435897435897795,0.7564102564102622,0.0897435897435894,0.16666666666666605,0.13191120088434194,-0.6202876939624756,0.0006184977213104719,-1.155220553952743,-0.42460360264926966,-0.42460360264926966,0.5454502133402864,-0.13163092190608017,0.7750456649173814,0.7306169513034733,0.7306169513034733,-0.85146356199449,-0.3060133486542036,-1.7006707672930292,-0.22359517580081564,0.03280205011634437,0.03280205011634437,-0.023480759750760784,0.23009650261512682
77,0.1410256410256405,0.3717948717948704,0.6025641025641003,0.05128205128205109,0.21794871794871715,0.2692307692307682,0.2692307692307682,0.4615384615384598,0.7051282051282025,0.08974358974359042,0.15384615384615502,0.13830061326868037,-0.6084709701171693,0.04066795841235057,-1.2426824012234525,-0.9896256427618882,-0.9896256427618882,0.501044934468005,-0.10958019465451002,-0.198240529346502,0.25305675846156417,0.25305675846156417,0.23552394983231903,0.7365688843003241,-1.7437273356914575,-1.1872099587436586,-0.7991103234692226,-0.7991103234692226,-0.027331906276268834,-0.1641708076611369
78,0.1518987341772157,0.3544303797468366,0.5822784810126601,0.06329113924050654,0.21518987341772225,0.2784810126582288,0.2784810126582288,0.4683544303797484,0.658227848101268,0.08860759493670817,0.1392405063291128,0.13174863321498861,-0.6284209967366201,0.05263231335325679,-1.3542289209476142,-0.9985932165745289,-0.9985932165745289,0.5674402627257112,-0.11413294374701297,-0.20374265250933643,0.3556357043730851,0.3556357043730851,0.07551724947573261,0.6429575122014438,-1.9216691836733253,-1.163680160663546,-0.38739321151409706,-0.38739321151409706,-0.030842888102610298,-1.104501487069652
79,0.14473684210526216,0.3684210526315765,0.5921052631578907,0.06578947368421008,0.2236842105263143,0.3421052631578924,0.3421052631578924,0.47368421052631254,0.7236842105263109,0.07894736842105302,0.14473684210526386,0.1363398428770571,-0.6460423248969609,0.04158254480398056,-1.2094682267009251,-0.34802457268942966,-0.34802457268942966,0.5529497503962002,-0.13138202818752062,0.7161138608961768,0.8614436540114956,0.8614436540114956,-1.0663688317182662,-0.5134190813220659,-1.7624179770971253,-0.279882923809937,0.015746073080000065,0.015746073080000065,-0.02813298683172481,0.32655400424620085
80,0.14285714285714293,0.37662337662337686,0.5974025974025977,0.05194805194805198,0.20779220779220792,0.33766233766233783,0.33766233766233783,0.46753246753246774,0.7532467532467537,0.09210526315789411,0.17105263157894623,0.1387447837953699,-0.585956400213143,0.016949699161200968,-1.177320753440405,-0.3510206085334044,-0.3510206085334044,0.494194450477089,-0.09741686134524287,0.7463343102638096,0.8263001449070007,0.8263001449070007,-0.9694739868506853,-0.4752795363735963,-1.671515203917494,-0.25366568973619047,0.14194822055037526,0.14194822055037526,-0.02175712663444837,0.5331618591332017
81,0.1518987341772157,0.3797468354430392,0.5822784810126601,0.06329113924050654,0.21518987341772225,0.34177215189873533,0.34177215189873533,0.4683544303797484,0.6455696202531667,0.08860759493670915,0.16455696202531697,0.13137849530149398,-0.6218408493487729,0.005917950496511603,-1.2019836222720393,-0.38880520502605953,-0.38880520502605953,0.5331255553411666,-0.07811146348464935,0.7564477067460345,0.8131784172459796,0.8131784172459796,-0.9574987675610868,-0.42437321221992014,-1.7351091776132057,-0.24089401120044543,0.11239782948435269,0.11239782948435269,-0.025972966505084703,0.25625214097048166
82,0.15384615384615327,0.3717948717948704,0.5897435897435875,0.06410256410256386,0.21794871794871715,0.35897435897435764,0.35897435897435764,0.47435897435897256,0.6538461538461514,0.08974358974358941,0.15384615384615327,0.1393357380619903,-0.5855715195726682,0.034986622532163225,-1.262703094936028,-0.23949601432122883,-0.23949601432122883,0.5345532064517435,-0.09320433866191113,0.6558598656714141,1.0232070806147993,1.0232070806147993,-1.318264272745314,-0.7837110662935705,-1.7972563013877716,-0.33944044239465965,0.2662989962906909,0.2662989962906909,-0.02572589762153474,0.5851744667639305
83,0.14999999999999988,0.3624999999999997,0.5749999999999995,0.07499999999999994,0.22499999999999978,0.3499999999999997,0.3499999999999997,0.4624999999999996,0.6499999999999994,0.07500000000000077,0.13750000000000143,0.13257268428501612,-0.6494229006438359,0.07296556291227893,-1.2841794391582357,-0.24429555727942615,-0.24429555727942615,0.5759051156879866,-0.14125261702010375,0.6328747578020458,1.0398838818788096,1.0398838818788096,-1.3714934402873702,-0.7955883245993834,-1.8600845548462224,-0.36120650539974297,0.1162916281564792,0.1162916281564792,-0.026515724029405434,0.9727259299304429
84,0.15789473684210606,0.38157894736842296,0.6052631578947398,0.07894736842105303,0.23684210526315905,0.3157894736842121,0.3157894736842121,0.4868421052631603,0.697368421052635,0.07792207792207707,0.14285714285714132,0.12614908709256878,-0.7014989824942619,0.050245843633537006,-1.3325137194570174,-0.8698161504040263,-0.8698161504040263,0.6263518311151054,-0.1297333655847327,-0.2480386744757727,0.4626975690529911,0.4626975690529911,-0.21923324976407024,0.4071185813510352,-1.9588655505721229,-1.1408053578423323,0.12359420027978095,0.12359420027978095,-0.02500660944258299,-0.1851707203074563
85,0.14285714285714293,0.36363636363636387,0.5844155844155847,0.05194805194805198,0.20779220779220792,0.3506493506493508,0.3506493506493508,0.46753246753246774,0.6493506493506498,0.09090909090909095,0.15584415584415592,0.13424266024085119,-0.6291413856166781,0.020706920858897228,-1.224340659417331,-0.25640030461806823,-0.25640030461806823,0.5464025294096666,-0.08436803880012522,0.6472811019570774,0.9679403547992627,0.9679403547992627,-1.257942579590861,-0.7115400501811945,-1.7707431888269975,-0.34790856095162526,0.10468793061899404,0.10468793061899404,-0.025790471087293227,0.27620487526325604
86,0.1392405063291144,0.3544303797468366,0.5822784810126601,0.06329113924050654,0.21518987341772225,0.2658227848101275,0.2658227848101275,0.4683544303797484,0.6329113924050654,0.07594936708860783,0.1392405063291144,0.13386649161865333,-0.6046830102565328,0.036814951823397835,-1.270054885333547,-1.002271996824597,-1.002271996824597,0.5051251973684928,-0.1123002360274464,-0.20535529523448878,0.26778288850895,0.26778288850895,0.2293639109471543,0.7344891083156471,-1.7751800827020396,-1.1911507467643594,-0.40280312394830464,-0.40280312394830464,-0.027503123281205705,-0.40187410392199885
87,0.1410256410256405,0.38461538461538314,0.5897435897435875,0.06410256410256386,0.21794871794871715,0.34615384615384487,0.34615384615384487,0.47435897435897256,0.6538461538461514,0.07692307692307662,0.16666666666666602,0.1340632209372618,-0.6013557507805791,0.01743723205139727,-1.2177906171234525,-0.27768913234742687,-0.27768913234742687,0.5072990372164566,-0.07147328758755347,0.7036110550336345,0.9401014847760257,0.9401014847760257,-1.1697113896450555,-0.6624123524285989,-1.725089654339909,-0.29474253439154513,0.09234257612881729,0.09234257612881729,-0.02849736579113233,0.3547992998176295
88,0.14999999999999988,0.3624999999999997,0.5624999999999994,0.062499999999999944,0.21249999999999983,0.3374999999999997,0.3374999999999997,0.44999999999999957,0.6374999999999994,0.08860759493670915,0.1518987341772157,0.1383489965470742,-0.631837131100671,0.05157572204809231,-1.2341422699095472,-0.3409058565337459,-0.3409058565337459,0.5703942737835642,-0.10595172404482989,0.7059595352392082,0.8932364133758013,0.8932364133758013,-1.1227248306256197,-0.5523305568420555,-1.8045365436931116,-0.28859271097441086,0.2317632579157484,0.2317632579157484,-0.029117763962815672,0.5538782891640404
89,0.16249999999999984,0.3624999999999997,0.5874999999999995,0.08749999999999993,0.2374999999999998,0.29999999999999977,0.29999999999999977,0.4749999999999996,0.7499999999999993,0.07499999999999993,0.12499999999999992,0.12920798968834935,-0.6592308530640592,0.08707655126655246,-1.3928332996586936,-0.9445993637608291,-0.9445993637608291,0.5975224835381666,-0.17362819389024306,-0.20982526389042588,0.4482339358978645,0.4482339358978645,-0.101157055675202,0.49636542786296467,-1.9903557831968604,-1.1402643076520145,-0.2005324667811327,-0.2005324667811327,-0.0312468356412335,0.5029843803801387
90,0.1710526315789482,0.3947368421052651,0.6052631578947398,0.07894736842105303,0.23684210526315905,0.38157894736842296,0.38157894736842296,0.4868421052631603,0.6710526315789507,0.08974358974359042,0.15384615384615502,0.13334792802665818,-0.6847713850710188,0.07744727765829648,-1.3230021539558565,-0.18168927492256373,-0.18168927492256373,0.6445974999267616,-0.1431373995201985,0.5712096547331289,1.1413128790332927,1.1413128790332927,-1.6042211040374907,-0.9596236041107291,-1.9675996538826181,-0.41393031518188433,0.018330034467412163,0.018330034467412163,-0.029064608776334322,0.5480496823603526
91,0.1410256410256405,0.35897435897435764,0.5769230769230748,0.05128205128205109,0.20512820512820437,0.3333333333333321,0.3333333333333321,0.4615384615384598,0.6410256410256386,0.09090909090909095,0.15584415584415592,0.13676032300639795,-0.609061949374418,0.0386259672549295,-1.1937723900219188,-0.31251395935126536,-0.31251395935126536,0.534178969573912,-0.10270240903223546,0.7052182638336435,0.8812584306706533,0.8812584306706533,-1.1029234408933,-0.568744471319388,-1.7279513595958307,-0.2945544154648385,0.10672031574020034,0.10672031574020034,-0.02701177010121495,0.25863858830874464
92,0.1392405063291144,0.36708860759493794,0.5822784810126601,0.06329113924050654,0.21518987341772225,0.329113924050634,0.329113924050634,0.45569620253164705,0.6455696202531667,0.07594936708860699,0.151898734177214,0.13236369953994526,-0.6292609727658194,0.013705200321190844,-1.213460979489433,-0.39515786069153047,-0.39515786069153047,0.5118934093461247,-0.08500829531002181,0.7588413133715503,0.8183031187979026,0.8183031187979026,-0.9350386674524969,-0.42314525810637216,-1.7253543888355578,-0.23933230151524829,0.11478014418515348,0.11478014418515348,-0.025174077146345425,0.2919046139891931
93,0.15384615384615327,0.3717948717948704,0.6025641025641003,0.06410256410256386,0.21794871794871715,0.35897435897435764,0.35897435897435764,0.47435897435897256,0.679487179487177,0.08974358974359044,0.15384615384615502,0.1362962065656234,-0.592349424096202,0.019755739613055573,-1.2279163508278768,-0.17741594195085222,-0.17741594195085222,0.4766194307544235,-0.08575691456558676,0.6144971482185999,1.0505004088770244,1.0505004088770244,-1.3497038976805957,-0.8730844669261723,-1.7045357815823003,-0.3832784604600891,0.14579574421868735,0.14579574421868735,-0.033521881476377614,0.7520766124164554
94,0.13580246913580327,0.35802469135802684,0.5679012345679046,0.061728395061728766,0.2098765432098778,0.3333333333333353,0.3333333333333353,0.4567901234567928,0.6543209876543249,0.07499999999999993,0.14999999999999988,0.13304299802002123,-0.6270749925731004,0.06809951921996668,-1.2619395596653509,-0.31055858927326585,-0.31055858927326585,0.5781636912746435,-0.1485277309597483,0.6902702293087916,0.951380970392085,0.951380970392085,-1.2189860723934627,-0.6408223811188193,-1.8401032509399944,-0.30813398716559515,0.1501703041828628,0.1501703041828628,-0.026300892537841066,0.7113913341863087
95,0.15584415584415415,0.37662337662337253,0.5974025974025908,0.07792207792207707,0.23376623376623118,0.3116883116883083,0.3116883116883083,0.46753246753246236,0.6883116883116808,0.07692307692307664,0.14102564102564052,0.12966196664189528,-0.69381021361531,0.08044861674063289,-1.3804505998652077,-0.9108716140802833,-0.9108716140802833,0.6177123660195903,-0.16581119663522112,-0.21933900921394295,0.4695789857849244,0.4695789857849244,-0.1764197377242315,0.44129262829535887,-1.9981629658847981,-1.1116099336627403,-0.3816748337903011,-0.3816748337903011,-0.028972910938368745,0.1395373142647538
96,0.15584415584415592,0.36363636363636387,0.5974025974025977,0.06493506493506497,0.23376623376623387,0.3246753246753249,0.3246753246753249,0.45454545454545486,0.6753246753246757,0.09090909090909097,0.12987012987012997,0.1322922084058069,-0.7180866000974043,0.062427364029571115,-1.3548772120325139,-0.6636525867853568,-0.6636525867853568,0.6030375359197596,-0.12994207107256445,-0.31546872162666617,0.691224625247157,0.691224625247157,-0.6306095743815598,-0.027572038461800244,-1.9579147479522736,-1.0592411489207745,0.04650618759013546,0.04650618759013546,-0.03137553080021248,0.03899528475865388
97,0.1392405063291144,0.3544303797468366,0.5822784810126601,0.050632911392405236,0.20253164556962094,0.3544303797468366,0.3544303797468366,0.4683544303797484,0.6329113924050654,0.08860759493670915,0.1518987341772157,0.1346638335499353,-0.5760360491913363,0.018878967733356258,-1.2738471575803256,-0.11364675676861785,-0.11364675676861785,0.5020432101830924,-0.08650428141489015,0.5802514202589355,1.160200400811708,1.160200400811708,-1.5485968542261823,-1.04655364404309,-1.775890367763418,-0.41294346820627664,0.1085679807901478,0.1085679807901478,-0.026811134118940542,0.6153180872855779
98,0.1410256410256405,0.3717948717948704,0.5897435897435875,0.05128205128205109,0.20512820512820437,0.3333333333333321,0.3333333333333321,0.4615384615384598,0.7051282051282025,0.09090909090909095,0.16883116883116894,0.14285730048653356,-0.5625544899528004,0.037503833522803426,-1.160292796244053,-0.29071412090301907,-0.29071412090301907,0.46996448772463384,-0.10577236900534849,0.7282998608688329,0.8695786753410338,0.8695786753410338,-1.0488290421626487,-0.5788645544380148,-1.6302572839686866,-0.27170013913116703,0.22757773323117653,0.22757773323117653,-0.023818372191335674,0.5457705739291354
99,0.1518987341772157,0.36708860759493794,0.6075949367088628,0.06329113924050654,0.22784810126582353,0.34177215189873533,0.34177215189873533,0.45569620253164705,0.6835443037974707,0.08749999999999993,0.1374999999999999,0.13360953172724724,-0.7204338034913523,0.16150721200694296,-1.3436837189915825,-0.47459543501112567,-0.47459543501112567,0.6701726611221417,-0.2955785118008044,-0.3956787996997174,0.8690882839804568,0.8690882839804568,-1.0646655100914728,-0.3944928489693311,-2.0138563801137246,-0.9694295433626243,-0.5979428498033446,-0.5979428498033446,-0.02476712801630996,0.4676065904347466
100,0.15789473684210606,0.36842105263158076,0.6052631578947398,0.06578947368421086,0.2236842105263169,0.2894736842105277,0.2894736842105277,0.4736842105263181,0.6710526315789507,0.09210526315789412,0.14473684210526216,0.12662929570787665,-0.7021891015658335,0.06771529430306725,-1.413751278060016,-1.1139407134674881,-1.1139407134674881,0.604216835388748,-0.15482524394253913,-0.26819863356334983,0.29981056459252803,0.29981056459252803,0.20991331348621206,0.81413014887496,-2.0179681134487644,-1.2187740878500841,0.4393563121039784,0.4393563121039784,-0.02938589820616263,-0.36977081597184347
101,0.15584415584415592,0.37662337662337686,0.5974025974025977,0.06493506493506497,0.2207792207792209,0.3506493506493508,0.3506493506493508,0.48051948051948074,0.7402597402597407,0.09090909090909097,0.15584415584415592,0.1402345680627122,-0.5807245158686382,0.04225748854984586,-1.2287176304384713,-0.26971747274392815,-0.26971747274392815,0.5135699820012717,-0.12127913070019754,0.6966048698401358,0.9590001576945432,0.9590001576945432,-1.2028526669518866,-0.6892826849506151,-1.742287612439743,-0.3023460872107036,0.1479519243731437,0.1479519243731437,-0.028460629814648784,0.6042062898359173
102,0.1392405063291128,0.37974683544303495,0.5822784810126536,0.06329113924050583,0.21518987341771983,0.3291139240506303,0.3291139240506303,0.4683544303797431,0.6329113924050583,0.07792207792207796,0.1688311688311689,0.13429641717457866,-0.6347103702201169,0.021055216984908788,-1.2194285950651194,-0.37153161193217515,-0.37153161193217515,0.5422763847057293,-0.10278643196067289,0.761271695308021,0.8478969831329443,0.8478969831329443,-1.0186417559064984,-0.4763653712007691,-1.7617049797708488,-0.2367440081818959,0.017392481402267276,0.017392481402267276,-0.026732288239015425,0.31063557915390766
103,0.16249999999999984,0.3874999999999997,0.5999999999999995,0.08749999999999993,0.2374999999999998,0.3374999999999997,0.3374999999999997,0.4749999999999996,0.6874999999999994,0.07499999999999993,0.14999999999999988,0.12855669160732608,-0.6608661968417422,0.06427545331649014,-1.25431744787835,-0.5607522521142466,-0.5607522521142466,0.598378164616806,-0.1561140233427536,0.8286083100112508,0.6935651957641035,0.6935651957641035,-0.7311911082666629,-0.13281294364985685,-1.852695612495156,-0.17011928071520083,0.11913498024412744,0.11913498024412744,-0.026105455227948535,0.2892357710384692
104,0.1710526315789482,0.3947368421052651,0.618421052631582,0.09210526315789519,0.2500000000000012,0.3157894736842121,0.3157894736842121,0.5000000000000024,0.697368421052635,0.07594936708860783,0.1392405063291144,0.1286090309564507,-0.6922383725737277,0.10587321493712387,-1.4439390560060645,-1.0407319548373464,-1.0407319548373464,0.6740260937229171,-0.22211977276578898,-0.20409970972774225,0.4032071011687181,0.4032071011687181,-0.03650124005428885,0.6375248536686282,-2.1179651497289815,-1.141915103105764,0.06395484261796425,0.06395484261796425,-0.027592365550606665,-0.25775073287425
105,0.1466666666666663,0.37333333333333246,0.5999999999999985,0.053333333333333205,0.21333333333333282,0.35999999999999915,0.35999999999999915,0.4799999999999988,0.7199999999999983,0.0933333333333331,0.15999999999999961,0.14496012526291618,-0.6147167741212183,0.07601911330365912,-1.268627278535834,-0.189743708991866,-0.189743708991866,0.5677202618956599,-0.13408086142467956,0.5964883488119759,1.078883569543968,1.078883569543968,-1.456860122447762,-0.889139860552102,-1.8363475404314942,-0.3934907709997255,0.16566799823887207,0.16566799823887207,-0.026759073265922594,0.6611095073349638
106,0.1392405063291128,0.36708860759493384,0.5696202531645524,0.06329113924050583,0.20253164556961867,0.34177215189873145,0.34177215189873145,0.4683544303797431,0.6329113924050583,0.0769230769230775,0.16666666666666796,0.1404087492325935,-0.5165182245440904,0.02007709275849746,-1.3040791672216938,-0.08460374600525884,-0.08460374600525884,0.4601165689975422,-0.06657747924663152,0.6155000916385762,1.219475421216435,1.219475421216435,-1.5949882442087184,-1.134871675211176,-1.764195736219236,-0.3810580835088882,0.10922343171303893,0.10922343171303893,-0.030435299790504224,0.5486237179683127
107,0.1410256410256421,0.37179487179487464,0.5769230769230813,0.051282051282051676,0.2051282051282067,0.33333333333333587,0.33333333333333587,0.46153846153846506,0.641025641025646,0.09090909090909095,0.16883116883116894,0.1384092258249774,-0.6310412260923435,0.04938587752989957,-1.2005803924617655,-0.40245697349338955,-0.40245697349338955,0.5804441331713464,-0.08213251025255962,0.7453226297761709,0.7981234189683759,0.7981234189683759,-0.9761105786463327,-0.39566644547498636,-1.7810245256331119,-0.2520408037328463,0.12518277341906078,0.12518277341906078,-0.0225055613926469,0.4608566968786409
108,0.15384615384615502,0.37179487179487464,0.6025641025641072,0.0641025641025646,0.23076923076923253,0.2948717948717971,0.2948717948717971,0.47435897435897795,0.6794871794871846,0.08974358974358838,0.14102564102563894,0.12779272625749022,-0.6905241338822058,0.08746185635531188,-1.3997313131821572,-0.9957117731570407,-0.9957117731570407,0.6627666987731543,-0.16952344039565842,-0.2329424653574203,0.4040195400251163,0.4040195400251163,-0.07107446564122981,0.5916922331319244,-2.062498011955311,-1.1708834583045695,-0.4232056199550862,-0.4232056199550862,-0.02436619300037127,-0.11540046109480562
109,0.1710526315789462,0.3815789473684185,0.6184210526315748,0.09210526315789412,0.2499999999999983,0.3157894736842084,0.3157894736842084,0.4868421052631546,0.7105263157894689,0.07792207792207796,0.12987012987012997,0.1277296414038878,-0.6934178276874394,0.07658563369959524,-1.4257813501136578,-0.9671669458089397,-0.9671669458089397,0.5824534805380536,-0.20222648616858108,-0.25132464064898696,0.4586144043047181,0.4586144043047181,-0.073900939033832,0.5085525415042216,-2.0082348306517113,-1.1654883937895566,0.3264578971967052,0.3264578971967052,-0.028229593353179278,-0.24974274624409165
110,0.14666666666666806,0.3733333333333369,0.6000000000000056,0.0666666666666673,0.22666666666666882,0.2800000000000027,0.2800000000000027,0.48000000000000453,0.7333333333333403,0.08000000000000075,0.14666666666666806,0.137452548564511,-0.6251202297857592,0.060121455649622374,-1.282788450809692,-1.0247963673263816,-1.0247963673263816,0.5271226785817734,-0.13821514820932437,-0.2339041466894013,0.2579920834833105,0.2579920834833105,0.2396816052612976,0.766804283843071,-1.8099111293914654,-1.2171415711547555,-0.10127411712950751,-0.10127411712950751,-0.025970547108715596,-0.608122074336626
111,0.14285714285714293,0.37662337662337686,0.6103896103896107,0.06493506493506497,0.2207792207792209,0.3506493506493508,0.3506493506493508,0.48051948051948074,0.7402597402597407,0.07792207792207796,0.15584415584415592,0.13391064448135645,-0.621017219781191,0.03317892275111969,-1.2468342022759746,-0.28343023494031266,-0.28343023494031266,0.5219165135537225,-0.1156905945013801,0.6833071800472524,0.9634039673356619,0.9634039673356619,-1.2018902459490717,-0.6799737323953492,-1.768750715829697,-0.3145395248520051,0.022730161872255458,0.022730161872255458,-0.026445011392517082,0.25864407430514863
112,0.1410256410256389,0.3846153846153788,0.6025641025640934,0.06410256410256314,0.21794871794871468,0.3461538461538409,0.3461538461538409,0.4743589743589672,0.7051282051281945,0.07894736842105209,0.17105263157894618,0.1316742542083034,-0.6529093496741579,0.06203375825686464,-1.2253172313087548,-0.356911079878093,-0.356911079878093,0.5763824774636624,-0.16647244328423005,0.7060597172166067,0.8684061514306617,0.8684061514306617,-1.0878775490162311,-0.5114950715525688,-1.801699708772417,-0.2933519306253688,0.13989994035892758,0.13989994035892758,-0.025574514807965763,0.41423334510939835
113,0.17333333333333498,0.4000000000000038,0.6266666666666726,0.09333333333333423,0.25333333333333574,0.36000000000000343,0.36000000000000343,0.5066666666666715,0.7200000000000069,0.07792207792207796,0.14285714285714293,0.12718427168098526,-0.7054055940834266,0.08804980099996623,-1.280208583216897,-0.5874137075577536,-0.5874137075577536,0.6745593259282674,-0.1921716710936446,0.8648281503656398,0.6927948756591434,0.6927948756591434,-0.7799404940296573,-0.1053811681013899,-1.9547679091451644,-0.1240034542171355,-0.029044816703704464,-0.029044816703704464,-0.023144799745532244,0.10213341020978828
114,0.14666666666666806,0.3866666666666703,0.6133333333333392,0.053333333333333836,0.22666666666666882,0.33333333333333653,0.33333333333333653,0.48000000000000453,0.7200000000000069,0.09333333333333421,0.16000000000000153,0.1373878444958801,-0.6682677141390884,0.056127285948047584,-1.2474042774039513,-0.5414417014611923,-0.5414417014611923,0.5994848536339469,-0.15069707464137874,0.8068495714967162,0.7059625759427591,0.7059625759427591,-0.7640057281155137,-0.1645208744815669,-1.8468891310378983,-0.19105400696202113,0.0031807746860791288,0.0031807746860791288,-0.02284606957437059,0.07218808225920748
115,0.14473684210526216,0.3815789473684185,0.6052631578947327,0.05263157894736807,0.21052631578947228,0.32894736842105043,0.32894736842105043,0.47368421052631254,0.736842105263153,0.09333333333333199,0.1733333333333309,0.13229675461320795,-0.6266452492752138,0.01065065758825957,-1.1394934892367146,-0.4909904700371758,-0.4909904700371758,0.5314523283101186,-0.1124237779538762,0.8234863377803817,0.6485030191995387,0.6485030191995387,-0.6889648774724816,-0.15751254916236296,-1.670945817546833,-0.17651366221961834,0.035097637766989334,0.035097637766989334,-0.023761630534724392,0.05975881361168289
116,0.15584415584415592,0.3896103896103898,0.6103896103896107,0.06493506493506497,0.23376623376623387,0.33766233766233783,0.33766233766233783,0.48051948051948074,0.7012987012987016,0.09210526315789627,0.1578947368421079,0.13653169035575377,-0.6567093903422221,0.05750402770686494,-1.2497310876633234,-0.5503933188603195,-0.5503933188603195,0.6131760724996386,-0.13455883625054307,0.8173502237730307,0.699337768803004,0.699337768803004,-0.7621205224423231,-0.14894444994268452,-1.862907160162962,-0.18099187890842705,0.1376433152791847,0.1376433152791847,-0.02308148931878399,0.21708376341012414
117,0.17567567567567605,0.40540540540540626,0.6216216216216229,0.08108108108108125,0.2567567567567573,0.33783783783783855,0.33783783783783855,0.500000000000001,0.7162162162162177,0.09333333333333199,0.14666666666666459,0.126660354676552,-0.6976288588901947,0.07086319590988963,-1.4434334980346781,-0.9299690463729585,-0.9299690463729585,0.697056745190794,-0.2236027848626798,-0.20522533441389199,0.5134644516617195,0.5134644516617195,-0.2805521504795549,0.416504594711239,-2.140490243225472,-1.0983205070895328,-0.1734242150605877,-0.1734242150605877,-0.022716663133907616,0.00748279593386747
118,0.15999999999999773,0.3866666666666612,0.6266666666666577,0.06666666666666572,0.23999999999999658,0.3866666666666612,0.3866666666666612,0.47999999999999315,0.733333333333323,0.09333333333333423,0.14666666666666808,0.12867197510000936,-0.7147285598703436,0.04888432573093063,-1.3333419012945094,-0.17791219244389125,-0.17791219244389125,0.6329794194760628,-0.1732372399280804,-0.5184369184761967,1.1554297088506182,1.1554297088506182,-1.6104969358827899,-0.9775175164067269,-1.9663213207705723,-0.7932604797109373,0.28323567472707295,0.28323567472707295,-0.023184458247166938,0.49736408410456545
119,0.14666666666666806,0.3866666666666703,0.6266666666666726,0.0666666666666673,0.22666666666666882,0.32000000000000306,0.32000000000000306,0.48000000000000453,0.7733333333333406,0.07999999999999885,0.15999999999999773,0.13512856037861823,-0.6350946499348229,0.04318675311661539,-1.156934003017295,-0.6892796647732082,-0.6892796647732082,0.5353742951882278,-0.15082589440013802,0.9222069441125345,0.4676543382440867,0.4676543382440867,-0.3137489686591063,0.22162532652912154,-1.6923082982055229,-0.0765189256804403,0.08664099282791715,0.08664099282791715,-0.01928167635343575,0.060711780650787306
120,0.1578947368421042,0.3815789473684185,0.6052631578947327,0.0789473684210521,0.23684210526315627,0.32894736842105043,0.32894736842105043,0.4868421052631546,0.6973684210526269,0.07792207792207796,0.14285714285714296,0.1315538225650311,-0.7070897265361558,0.11311468368003716,-1.3268455063217606,-0.8079932549530234,-0.8079932549530234,0.7034350850568708,-0.17781339792502524,-0.2837821307400293,0.5188522513687371,0.5188522513687371,-0.41429408147258445,0.28914100358428635,-2.0302805913786313,-1.1174571362045176,-0.669821920331642,-0.669821920331642,-0.022071728924223377,0.050467100186722624
121,0.1621621621621625,0.3783783783783792,0.6081081081081093,0.06756756756756771,0.22972972972973024,0.324324324324325,0.324324324324325,0.472972972972974,0.7297297297297313,0.09589041095890592,0.15068493150685217,0.12717546948081243,-0.7639020303981868,0.09093903309203524,-1.3195427923658665,-0.7683641799833495,-0.7683641799833495,0.6762078979471192,-0.19586298177210085,-0.3374459360525298,0.5511786123825169,0.5511786123825169,-0.45902233034628664,0.2171855676008326,-1.9957506903129856,-1.1289289226891759,0.5164086728937035,0.5164086728937035,-0.025364219422347383,-0.0079518383084769
122,0.1621621621621625,0.3918918918918927,0.6216216216216229,0.06756756756756771,0.24324324324324373,0.3783783783783792,0.3783783783783792,0.48648648648648746,0.7162162162162177,0.0945945945945948,0.148648648648649,0.1386718369509909,-0.6668063620985262,0.06250741433936022,-1.2757494213003384,-0.2577321688720446,-0.2577321688720446,0.601568953560434,-0.15755014151433014,-0.3515464236792348,1.0180172524282938,1.0180172524282938,-1.3618540371166832,-0.7602850835562492,-1.8773183748607725,-0.8177956866037458,-0.5379856963611755,-0.5379856963611755,-0.019542883277222478,0.49247703324246367
123,0.1710526315789462,0.3947368421052605,0.6184210526315748,0.0789473684210521,0.23684210526315627,0.3421052631578924,0.3421052631578924,0.4868421052631546,0.749999999999995,0.09210526315789411,0.1578947368421042,0.12025384631182592,-0.738182441003113,0.03179466675657748,-1.332844152753606,-0.6863448625766299,-0.6863448625766299,0.670435618169448,-0.14421099324331285,0.8814680049775594,0.646499290176976,0.646499290176976,-0.6305900457697942,0.039845572399653764,-2.003279770923054,-0.11121256093805294,-0.1750044857554419,-0.1750044857554419,-0.026891929174295198,-0.012025737278496318
124,0.1891891891891896,0.40540540540540626,0.6351351351351365,0.10810810810810834,0.27027027027027084,0.3513513513513521,0.3513513513513521,0.5135135135135146,0.7297297297297313,0.0789473684210521,0.13157894736842016,0.11865953708252074,-0.7438909406005418,0.0623581579014792,-1.4906005857447782,-0.9131644939115139,-0.9131644939115139,0.6786537046505062,-0.21352615686023774,-0.22056141101260868,0.5774360918332642,0.5774360918332642,-0.3429253025722565,0.3357284020782497,-2.1692542903952843,-1.0793200404564518,0.6377216183186,0.6377216183186,-0.02805966569528147,-0.2034821607158087
125,0.16000000000000153,0.3733333333333369,0.6133333333333392,0.0666666666666673,0.22666666666666882,0.33333333333333653,0.33333333333333653,0.48000000000000453,0.7066666666666733,0.0945945945945948,0.14864864864864896,0.1389025527612067,-0.6855992979083201,0.0888054815438307,-1.2487964212872216,-0.6259634668927907,-0.6259634668927907,0.618077798032543,-0.18966736923778538,-0.36419288295856694,0.6228329543944308,0.6228329543944308,-0.6149472855341831,0.00313051249835996,-1.8668742193197645,-1.1002428845814403,-0.08522137238745472,-0.08522137238745472,-0.024525158166446778,0.3362706873258563
126,0.15999999999999773,0.3866666666666612,0.6133333333333246,0.06666666666666572,0.22666666666666346,0.34666666666666174,0.34666666666666174,0.4933333333333263,0.7066666666666566,0.09333333333333423,0.16000000000000153,0.12881348672299983,-0.6555458434889317,0.045737875111391914,-1.2104505284955902,-0.49805472445088567,-0.49805472445088567,0.5967732108311783,-0.14106188786562152,0.8005611880123291,0.7123958040447045,0.7123958040447045,-0.811114290424997,-0.21434107959381882,-1.8072237393267685,-0.19636868065362115,0.007990093768760085,0.007990093768760085,-0.02606624460321894,0.17171545614716338
127,0.17333333333333498,0.3866666666666703,0.6133333333333392,0.08000000000000076,0.24000000000000227,0.32000000000000306,0.32000000000000306,0.493333333333338,0.7066666666666733,0.09210526315789411,0.14473684210526222,0.13762356859511873,-0.7074005296760404,0.15825201885375384,-1.353157727385139,-0.9484492547529544,-0.9484492547529544,0.7399519201620796,-0.2357187964559861,-0.29321145977960167,0.4047084726321845,0.4047084726321845,-0.19621113804130966,0.5437407821207698,-2.093109647547218,-1.1877893289912584,-0.5319881265496823,-0.5319881265496823,-0.025622801885671277,-0.115890884311033
128,0.1621621621621625,0.3783783783783792,0.6081081081081093,0.06756756756756771,0.24324324324324373,0.31081081081081147,0.31081081081081147,0.472972972972974,0.7162162162162177,0.09589041095890359,0.13698630136986228,0.12886394516448185,-0.7464707297254626,0.10015606785734152,-1.4440128861329395,-0.9744507930870896,-0.9744507930870896,0.6772254061280963,-0.21094152511360684,-0.28995422204215193,0.46956209304584995,0.46956209304584995,-0.17233670608685672,0.5048887000412396,-2.1212382922610358,-1.1754633096065394,0.24798793115793621,0.24798793115793621,-0.02831381541573451,-0.23687812834881827
129,0.1621621621621625,0.3918918918918927,0.6216216216216229,0.08108108108108125,0.22972972972973024,0.33783783783783855,0.33783783783783855,0.48648648648648746,0.7432432432432449,0.08000000000000076,0.16000000000000153,0.13438659950554044,-0.6778067944914193,0.05682596412061004,-1.212380694333702,-0.6393115230334961,-0.6393115230334961,0.6069824876756308,-0.1646610863398035,0.8872284044991109,0.5730691713002061,0.5730691713002061,-0.5407401359423407,0.06624235173328999,-1.819363182009333,-0.10725274691746656,-0.022683553929796558,-0.022683553929796558,-0.023313412003404817,0.02742153237939049
130,0.14473684210526216,0.3815789473684185,0.6052631578947327,0.05263157894736807,0.2236842105263143,0.32894736842105043,0.32894736842105043,0.47368421052631254,0.7105263157894689,0.09333333333333421,0.16000000000000153,0.1344798170073103,-0.657613537350724,0.04898142607486487,-1.2425252362038781,-0.5540263750958577,-0.5540263750958577,0.5918075863516828,-0.15619405036310188,0.8398384636066663,0.6884988611080205,0.6884988611080205,-0.7262800723638455,-0.13447248601216275,-1.834332822555561,-0.15480470670419846,0.07993745938275348,0.07993745938275348,-0.02307609235949934,0.2767829578244213
131,0.1621621621621625,0.3783783783783792,0.6081081081081093,0.06756756756756771,0.24324324324324373,0.324324324324325,0.324324324324325,0.48648648648648746,0.6891891891891906,0.093333333333332,0.13333333333333147,0.13583005093333594,-0.6713273129223553,0.08524285104362221,-1.3593303707556652,-0.8443000719858037,-0.8443000719858037,0.6535226138550267,-0.18790996016771383,-0.2095643886044388,0.5150302987698616,0.5150302987698616,-0.32425284063908466,0.3292697732159421,-2.012852984610692,-1.0818219347053848,-0.5927781554775212,-0.5927781554775212,-0.021319287803703988,0.03279561463898917
132,0.15068493150684847,0.38356164383561436,0.6027397260273939,0.05479452054794491,0.23287671232876586,0.38356164383561436,0.38356164383561436,0.47945205479451797,0.6986301369862975,0.09589041095890358,0.15068493150684847,0.13333816794021125,-0.7178758260705171,0.0915279558667018,-1.3200047132609782,-0.13065470538021393,-0.13065470538021393,0.6818033763357355,-0.21741747837820963,-0.5246726027631209,1.1893500078807644,1.1893500078807644,-1.740498678836286,-1.0586953025005503,-2.0018080895967136,-0.7484131560001619,0.36676079209937673,0.36676079209937673,-0.022332812676788914,0.6257204328001069
133,0.14666666666666806,0.3866666666666703,0.6000000000000056,0.053333333333333836,0.22666666666666882,0.33333333333333653,0.33333333333333653,0.48000000000000453,0.7066666666666733,0.09459459459459478,0.1621621621621625,0.1363752821509554,-0.6592707431583151,0.05328801615402108,-1.2306802243607808,-0.5619581520517026,-0.5619581520517026,0.6080624739563981,-0.16005142720713256,0.8401003880859786,0.6687220723090782,0.6687220723090782,-0.7148263942137737,-0.1067639202573756,-1.8387426983171788,-0.1549758391194623,0.05161764319677226,0.05161764319677226,-0.0227806495689202,0.706422840273791
134,0.15999999999999773,0.3866666666666612,0.6133333333333246,0.06666666666666572,0.22666666666666346,0.34666666666666174,0.34666666666666174,0.4933333333333263,0.7199999999999898,0.09333333333333423,0.16000000000000153,0.13357763933524605,-0.6529469047658588,0.06375031965205281,-1.197342194475899,-0.49156304878134827,-0.49156304878134827,0.5925467895169645,-0.17541178236114102,0.7936320886598979,0.7057791456945509,0.7057791456945509,-0.8067628864301671,-0.21421609691320265,-1.7898889839928638,-0.20307365153582269,0.021334524472716297,0.021334524472716297,-0.023819555666684495,0.08308577453716237
135,0.16438356164383872,0.39726027397261027,0.6164383561643951,0.08219178082191936,0.24657534246575807,0.31506849315069085,0.31506849315069085,0.5068493150685027,0.7123287671233011,0.08000000000000076,0.14666666666666808,0.1384193177127411,-0.6557294124320224,0.09846556048133827,-1.3058784563041845,-0.9953881693050622,-0.9953881693050622,0.6660074704366089,-0.20176926464815334,-0.19568665852497374,0.31049028699912234,0.31049028699912234,0.0188904118693309,0.6848978823059398,-1.9718859267407935,-1.1526555460691235,-0.7483240486396064,-0.7483240486396064,-0.021305584356077788,-0.18170580326206265
136,0.14864864864864896,0.3783783783783792,0.5945945945945958,0.05405405405405417,0.21621621621621667,0.33783783783783855,0.33783783783783855,0.472972972972974,0.7432432432432449,0.09589041095890358,0.16438356164383472,0.13679437733893512,-0.6846000122430002,0.0479414389836115,-1.2005979580454693,-0.4284241787253146,-0.4284241787253146,0.6057783458157675,-0.13390213367212056,0.736046748184872,0.7721737793201546,0.7721737793201546,-0.9495279464106076,-0.34374960059484005,-1.8063763038612366,-0.2620519881731415,-0.09841028727758237,-0.09841028727758237,-0.023113251445261582,0.32608870589672057
137,0.14666666666666459,0.3866666666666612,0.6133333333333246,0.06666666666666572,0.22666666666666346,0.34666666666666174,0.34666666666666174,0.47999999999999315,0.7599999999999892,0.07999999999999885,0.15999999999999773,0.1390087947600698,-0.5959276579820074,0.05141341349574421,-1.162292741170031,-0.37951467927493543,-0.37951467927493543,0.4989358190177268,-0.18695568152411907,0.7704785494512248,0.7827780618950957,0.7827780618950957,-0.9021992016378871,-0.40326338262016026,-1.6612285601877579,-0.2283392677226818,0.005485549424508895,0.005485549424508895,-0.022571857928064203,0.18408732834499242
138,0.14473684210526216,0.3815789473684185,0.6052631578947327,0.06578947368421008,0.2236842105263143,0.3157894736842084,0.3157894736842084,0.47368421052631254,0.736842105263153,0.07894736842105393,0.1578947368421079,0.1387633990205117,-0.6432195202599328,0.0272734216883399,-1.1680835166250345,-0.660909485806602,-0.660909485806602,0.5973720798367183,-0.1606056319347407,0.9004053140412002,0.5071740308184325,0.5071740308184325,-0.4436366248485487,0.15373545498816954,-1.7654555964617527,-0.09937183810012018,0.09795574843036534,0.09795574843036534,-0.021509517378354343,0.15779824324688085
139,0.15068493150685217,0.3835616438356237,0.6027397260274087,0.05479452054794624,0.24657534246575807,0.3835616438356237,0.3835616438356237,0.4794520547945296,0.7123287671233011,0.09589041095890358,0.13698630136986228,0.13035796271722466,-0.7725267563903513,0.10124197609049845,-1.2597834084953552,-0.24027731239336564,-0.24027731239336564,0.781928654433651,-0.23754325255473144,-0.4287865141638031,1.0195060961019895,1.0195060961019895,-1.5611574381422748,-0.7792287837086238,-2.041712062929006,-0.7765125764346147,0.05339296178260675,0.05339296178260675,-0.021222464369418992,0.4777742054530451
140,0.15068493150684847,0.38356164383561436,0.6164383561643801,0.05479452054794491,0.21917808219177964,0.3698630136986281,0.3698630136986281,0.4931506849315041,0.7534246575342425,0.09459459459459478,0.1621621621621625,0.13881493800205438,-0.6233548075414028,0.05803589427817049,-1.1734060916307247,-0.20771449802157332,-0.20771449802157332,0.5321814493981154,-0.1558317060825396,0.6233056029609431,0.9656915936091514,0.9656915936091514,-1.2901585449856934,-0.757977095587578,-1.7055875410288401,-0.3699066631613602,-0.03654532829447939,-0.03654532829447939,-0.026148150107759945,0.5055202728747965
141,0.14666666666666459,0.3866666666666612,0.5866666666666583,0.053333333333332573,0.2133333333333303,0.34666666666666174,0.34666666666666174,0.47999999999999315,0.6399999999999909,0.09459459459459478,0.17567567567567607,0.14234496722872444,-0.6115580564658997,0.05414055742847784,-1.235794039707853,-0.2855270013894571,-0.2855270013894571,0.5693644748063145,-0.12324367560198861,0.6842045402874585,0.950267038318396,0.950267038318396,-1.2341045117352534,-0.6647400369289389,-1.8051585145141675,-0.31466507242584985,0.11019848892352643,0.11019848892352643,-0.026082871380301666,0.5458590191790637
142,0.16000000000000153,0.3866666666666703,0.6000000000000056,0.08000000000000076,0.22666666666666882,0.3866666666666703,0.3866666666666703,0.493333333333338,0.6666666666666731,0.07999999999999886,0.15999999999999773,0.13641478974409088,-0.624808989911076,0.1214576423766765,-1.2658396079555791,-0.05996441806119044,-0.05996441806119044,0.6096386333034274,-0.31265868226251536,0.5220903837294,1.2058751898943887,1.2058751898943887,-1.7555494051366256,-1.1459107718331982,-1.8754782412590063,-0.4667207053805856,0.1968593779278693,0.1968593779278693,-0.02747039593599631,0.8358728804564655
143,0.14864864864864896,0.36486486486486563,0.6081081081081093,0.06756756756756771,0.22972972972973024,0.2972972972972979,0.2972972972972979,0.48648648648648746,0.7567567567567584,0.08108108108108124,0.1351351351351354,0.13897476543234882,-0.6609392005974981,0.08398520596496606,-1.3444651315847633,-0.9253646671100217,-0.9253646671100217,0.5828303999879673,-0.1667105698867978,-0.3041714005971109,0.41910046447474164,0.41910046447474164,-0.07656619735268706,0.5062642026352802,-1.9272955315727307,-1.2269149349488615,0.3683718225426734,0.3683718225426734,-0.02641072309289307,-0.14344386417997435
144,0.14864864864864896,0.3918918918918927,0.6081081081081093,0.05405405405405417,0.21621621621621667,0.3513513513513521,0.3513513513513521,0.48648648648648746,0.7567567567567584,0.09459459459459478,0.17567567567567607,0.13750113798114066,-0.6094246686070427,0.04076049396533911,-1.1723312082515878,-0.3410154224241536,-0.3410154224241536,0.5541250717794283,-0.16023684295778334,0.7260252793150259,0.831315785827434,0.831315785827434,-1.0444254351827087,-0.4903003634032805,-1.7264562800310161,-0.273974720684974,0.08658953404411616,0.08658953404411616,-0.025820721083142303,0.529207291746173
145,0.14666666666666459,0.373333333333328,0.6266666666666577,0.053333333333332573,0.2133333333333303,0.29333333333332917,0.29333333333332917,0.46666666666666007,0.7199999999999898,0.09459459459459478,0.1621621621621625,0.14118640990842674,-0.6204816171407547,0.04573269439441684,-1.1915372577889551,-0.8419166787746405,-0.8419166787746405,0.44502232463907054,-0.1406828161343041,-0.2624883894304872,0.3496205790143147,0.3496205790143147,0.04727377512125523,0.4922960997603258,-1.6365595824280257,-1.1979654772890305,-0.09351532778203082,-0.09351532778203082,-0.026064500085245693,0.3963558757277671
146,0.1621621621621625,0.3783783783783792,0.6081081081081093,0.08108108108108125,0.24324324324324373,0.2972972972972979,0.2972972972972979,0.500000000000001,0.6756756756756771,0.0789473684210521,0.13157894736842018,0.13680972109547618,-0.6031977465653178,0.07090964817092801,-1.4163312617767336,-1.1215877725637762,-1.1215877725637762,0.5455089997870157,-0.1629594118373609,-0.16084101897165173,0.2947434892129574,0.2947434892129574,0.28133528356380316,0.8268442833508188,-1.9618402615637496,-1.1414757894219856,-0.5752957207905237,-0.5752957207905237,-0.02704012715031739,-0.2474050284988053
147,0.14864864864864896,0.3513513513513521,0.5810810810810823,0.05405405405405417,0.21621621621621667,0.2837837837837844,0.2837837837837844,0.4594594594594605,0.64864864864865,0.09589041095890591,0.1369863013698656,0.14525078673437097,-0.6233198940928012,0.033529822050860546,-1.3206099803751536,-0.9137453858259591,-0.9137453858259591,0.516729449411619,-0.1422557349447006,-0.23612566650163141,0.4068645945491945,0.4068645945491945,-0.009848658134854405,0.5068807912767646,-1.8373394297867727,-1.1717517049866601,-0.03723725811701896,-0.03723725811701896,-0.026522951943468886,-0.1608595143328283
148,0.14864864864864896,0.3783783783783792,0.6081081081081093,0.05405405405405417,0.21621621621621667,0.2837837837837844,0.2837837837837844,0.48648648648648746,0.770270270270272,0.09589041095890358,0.16438356164383472,0.1378911529871804,-0.5869116691348192,0.02276322268745924,-1.1340863589575556,-0.9234323060795108,-0.9234323060795108,0.4948746407461093,-0.13171645788576047,-0.14111584202592653,0.21065405287804484,0.21065405287804484,0.21790361245535664,0.7127782532014659,-1.628960999703665,-1.127806954455715,-0.7001622017777944,-0.7001622017777944,-0.023761370152903402,-0.16470824936139705
149,0.1621621621621625,0.3918918918918927,0.5810810810810823,0.06756756756756771,0.22972972972973024,0.3513513513513521,0.3513513513513521,0.472972972972974,0.6081081081081093,0.093333333333332,0.15999999999999773,0.1363945768538921,-0.6335672262479395,-0.07585756945055055,-1.2447292354744877,-0.47561654702450545,-0.47561654702450545,0.5336107076043495,-0.027211164196067984,0.7914079653579595,0.7691126884499822,0.7691126884499822,-0.8271068490298262,-0.29349614142547675,-1.7783399430788371,-0.2052182610654397,0.167539080087008,0.167539080087008,-0.023969614915730148,0.05861113681870839
150,0.1621621621621625,0.3783783783783792,0.6081081081081093,0.06756756756756771,0.22972972972973024,0.31081081081081147,0.31081081081081147,0.48648648648648746,0.7432432432432449,0.09333333333333423,0.14666666666666806,0.1390562454238546,-0.6385199940847758,0.10324728249111627,-1.3081299588646123,-0.9122896313622244,-0.9122896313622244,0.6282972821944864,-0.16710806159788574,-0.1927066248992779,0.3958403275023878,0.3958403275023878,-0.11184797833464975,0.5164493038598367,-1.9364272410590986,-1.118482582698371,-1.153236379660608,-1.153236379660608,-0.026833018645163836,-0.06901800142673398
151,0.15068493150684847,0.3972602739726006,0.6164383561643801,0.05479452054794491,0.21917808219177964,0.3150684931506832,0.3150684931506832,0.47945205479451797,0.7534246575342425,0.09459459459459478,0.17567567567567607,0.13839266770060046,-0.6235446065087191,0.025882036234400538,-1.10835575128274,-0.7224580869563287,-0.7224580869563287,0.5149680806360156,-0.12553889499647358,0.9389063879121784,0.3858976643264113,0.3858976643264113,-0.17840765800609815,0.3365604226299174,-1.6233238319187555,-0.060650947013074843,0.1052759151145221,0.1052759151145221,-0.023922589514640536,0.04187603081797209
152,0.1333333333333346,0.3733333333333369,0.6000000000000056,0.04000000000000038,0.21333333333333535,0.3066666666666696,0.3066666666666696,0.4666666666666711,0.7466666666666738,0.0945945945945948,0.1621621621621625,0.13832812189200772,-0.6182663956022532,0.018617662394882297,-1.1056832024698886,-0.6219872380544027,-0.6219872380544027,0.5030264799124124,-0.11014783934451564,0.9055547891121195,0.48369596441548585,0.48369596441548585,-0.36473520627349565,0.13829127363891683,-1.608709682382301,-0.09430294217797441,0.09969654125272231,0.09969654125272231,-0.020644365482020113,0.16634000289275963
153,0.1621621621621625,0.3783783783783792,0.6216216216216229,0.06756756756756771,0.22972972972973024,0.31081081081081147,0.31081081081081147,0.48648648648648746,0.7297297297297313,0.0945945945945948,0.14864864864864896,0.12729237403563942,-0.7131046546262967,0.11521479348426292,-1.2990558376331542,-0.9055025249541987,-0.9055025249541987,0.6512120843622872,-0.23700744023304512,-0.2690618200739753,0.39355331267895544,0.39355331267895544,-0.1392628720870439,0.5119492122752433,-1.9502679219954413,-1.171205559164267,0.3556825436220525,0.3556825436220525,-0.025578621589399955,-0.16647873737694674
154,0.14864864864864896,0.3783783783783792,0.6216216216216229,0.05405405405405417,0.21621621621621667,0.36486486486486563,0.36486486486486563,0.48648648648648746,0.7297297297297313,0.09459459459459252,0.16216216216215862,0.1420100456479034,-0.6248994374520445,0.06900905062654131,-1.1583082005369345,-0.22749226278191084,-0.22749226278191084,0.4994542634091683,-0.165446064701953,0.6191796914135639,0.9308159377550237,0.9308159377550237,-1.2027779383822812,-0.7033236749731129,-1.6577624639461028,-0.3739452754062793,-0.08693131944210428,-0.08693131944210428,-0.02103665064881313,0.45388352368209717
155,0.14666666666666806,0.3866666666666703,0.6266666666666726,0.053333333333333836,0.21333333333333535,0.33333333333333653,0.33333333333333653,0.48000000000000453,0.7333333333333403,0.09333333333333421,0.17333333333333498,0.1378310215619733,-0.6219784545010447,0.048903113892530055,-1.1526463769888873,-0.47348838044907365,-0.47348838044907365,0.5360886732494907,-0.1667269300706171,0.8073658289053578,0.6791579965398137,0.6791579965398137,-0.7417582893402307,-0.20566961609074005,-1.688735050238378,-0.19263417109464223,0.09204299626199805,0.09204299626199805,-0.02481663906387217,0.3160670708506445
156,0.14864864864864896,0.3783783783783792,0.5945945945945958,0.06756756756756771,0.22972972972973024,0.3513513513513521,0.3513513513513521,0.48648648648648746,0.6621621621621636,0.08000000000000075,0.14666666666666806,0.13841554578934429,-0.668915462453961,0.11629137778340151,-1.2312767604555335,-0.36778610383942895,-0.36778610383942895,0.638237421420656,-0.19389495164173967,0.7005084356130549,0.8634906566161045,0.8634906566161045,-1.1339419741973316,-0.4957045527766755,-1.8695141818761896,-0.29469240667204566,0.04837418755264684,0.04837418755264684,-0.02432582512696223,2.160444853283499
157,0.14864864864864896,0.36486486486486563,0.5945945945945958,0.05405405405405417,0.21621621621621667,0.3513513513513521,0.3513513513513521,0.472972972972974,0.6891891891891906,0.09589041095890358,0.15068493150684847,0.13989168617758646,-0.6508795986418597,0.0901341319317198,-1.2444156491069207,-0.25783723665018227,-0.25783723665018227,0.5894890933906705,-0.19313956984133127,0.6493882889562873,0.9865784124567385,0.9865784124567385,-1.3182302691972267,-0.7287411758065562,-1.8339047424975912,-0.33699552164253704,-0.023898975129709957,-0.023898975129709957,-0.025219551958632208,0.5087154111137153
158,0.14864864864864896,0.3783783783783792,0.6351351351351365,0.05405405405405417,0.21621621621621667,0.33783783783783855,0.33783783783783855,0.472972972972974,0.7297297297297313,0.09333333333333199,0.15999999999999773,0.13808128801925973,-0.6350479181685097,0.07010669910698893,-1.1381893899593112,-0.4318018573440887,-0.4318018573440887,0.48944817008687247,-0.20412312566420332,0.7867947217368458,0.7063875326152224,0.7063875326152224,-0.7640338453580061,-0.2745856752711337,-1.6276375600461837,-0.20944705792045357,-0.0012213176245349888,-0.0012213176245349888,-0.02609137583431728,0.1866880004801602
159,0.13333333333333144,0.373333333333328,0.5999999999999914,0.053333333333332573,0.19999999999999715,0.3333333333333286,0.3333333333333286,0.47999999999999315,0.733333333333323,0.08108108108108125,0.17567567567567607,0.1461717736285513,-0.5879934877537917,0.06378090513550524,-1.1375819928972155,-0.2733612040765123,-0.2733612040765123,0.5036550833959398,-0.13744338283101237,0.7068514048514104,0.8642207888207032,0.8642207888207032,-1.0945146681401308,-0.5908595847441909,-1.6412370762931552,-0.29314859514858965,0.050018711949412695,0.050018711949412695,-0.025471917888719112,0.6086885495726796
160,0.1621621621621625,0.3783783783783792,0.6081081081081093,0.06756756756756771,0.22972972972973024,0.2972972972972979,0.2972972972972979,0.500000000000001,0.6891891891891906,0.09210526315789627,0.14473684210526555,0.13500869941605767,-0.6386644871479267,0.1225851625880981,-1.3237538497460817,-0.9919880892333092,-0.9919880892333092,0.6304620203843861,-0.1942804870181086,-0.20062700126476726,0.3317657605127725,0.3317657605127725,0.029760308336150478,0.6602223287205367,-1.9542158701304677,-1.1589311524523298,-0.4190411904715581,-0.4190411904715581,-0.02963227248675129,-0.07656170713937915
161,0.13513513513513542,0.36486486486486563,0.5945945945945958,0.05405405405405417,0.20270270270270313,0.324324324324325,0.324324324324325,0.4594594594594605,0.7027027027027042,0.08219178082191736,0.16438356164383472,0.1450751565964782,-0.6629709650044449,0.0784517079948267,-1.1380378031813567,-0.36804669101453863,-0.36804669101453863,0.5438450815319542,-0.17817034164688134,0.7216064569153612,0.7699911121668181,0.7699911121668181,-0.9457895026842337,-0.40194442115227946,-1.681882884713311,-0.27640801379375035,-0.16565460270889285,-0.16565460270889285,-0.026026616461062854,0.4404170655145227
162,0.13513513513513542,0.36486486486486563,0.5945945945945958,0.05405405405405417,0.20270270270270313,0.27027027027027084,0.27027027027027084,0.4594594594594605,0.6891891891891906,0.08108108108108125,0.1621621621621625,0.15157449233200873,-0.5583185929661871,0.05453941271343082,-1.0439927228874923,-0.8315544598273651,-0.8315544598273651,0.4062502448246207,-0.11816663848934453,-0.15682583652615756,0.21243826306012725,0.21243826306012725,0.21286595194261715,0.6191161967672378,-1.450242967712113,-1.1429546832675659,-1.3604157961507302,-1.3604157961507302,-0.02284460849881266,-0.01083513025808236
163,0.14666666666666459,0.373333333333328,0.6133333333333246,0.053333333333332573,0.2133333333333303,0.27999999999999603,0.27999999999999603,0.47999999999999315,0.733333333333323,0.09333333333333199,0.15999999999999773,0.13676203839307383,-0.6426380606596669,0.06049786675512223,-1.2168825903708522,-0.9176814584371161,-0.9176814584371161,0.5065497076950882,-0.15711298951692507,-0.28431641769837224,0.299201131933736,0.299201131933736,0.11193061880829189,0.6184803265033801,-1.7234322980659402,-1.2489577258917588,0.20031708634740975,0.20031708634740975,-0.026436379851769814,-0.20980365286696068
164,0.14666666666666806,0.36000000000000343,0.6000000000000056,0.0666666666666673,0.22666666666666882,0.2933333333333361,0.2933333333333361,0.4666666666666711,0.6933333333333399,0.08000000000000075,0.13333333333333458,0.14024209742333532,-0.6464532196935503,0.09877836130691955,-1.3120760395757005,-0.8876764575662535,-0.8876764575662535,0.5675396078216334,-0.1842268250197833,-0.2299876692717195,0.42439958200944705,0.42439958200944705,-0.10426273226482692,0.46327687555680647,-1.879615647397334,-1.1567474558286845,-0.7128033872690415,-0.7128033872690415,-0.025970540107202206,-0.03805089659761152
165,0.14864864864864896,0.36486486486486563,0.5945945945945958,0.05405405405405417,0.21621621621621667,0.2837837837837844,0.2837837837837844,0.472972972972974,0.7297297297297313,0.09589041095890358,0.15068493150684847,0.133314658890578,-0.6849306852958917,0.07737780243243887,-1.3111871901242758,-0.9507283518388234,-0.9507283518388234,0.579738869077049,-0.17856741453020378,-0.2548708443019065,0.3604588382854525,0.3604588382854525,0.010530644476321927,0.5902695135533709,-1.8909260592013248,-1.1914227422731172,0.4690872891863486,0.4690872891863486,-0.02597911243163276,-0.1877763401001985
166,0.14864864864864896,0.3783783783783792,0.6081081081081093,0.05405405405405417,0.21621621621621667,0.2972972972972979,0.2972972972972979,0.472972972972974,0.7567567567567584,0.09459459459459478,0.1621621621621625,0.13890571455734868,-0.6306338014530564,0.05605259320530583,-1.232595993057146,-0.8704423487376665,-0.8704423487376665,0.5368698907146298,-0.1690684177294395,-0.20948184671492895,0.3621536443194795,0.3621536443194795,-0.028581186296442716,0.5082887044181871,-1.7694658837717758,-1.1478269951654,-0.1408775565290552,-0.1408775565290552,-0.02414247580591333,0.2080800289761171
167,0.14666666666666806,0.3733333333333369,0.6133333333333392,0.0666666666666673,0.22666666666666882,0.2933333333333361,0.2933333333333361,0.48000000000000453,0.7466666666666738,0.08108108108108124,0.14864864864864896,0.13938904960030593,-0.6308630735292668,0.06493338332512033,-1.2695730484342223,-0.8922752144683285,-0.8922752144683285,0.5322031181753586,-0.1656392158269608,-0.22949151171311294,0.37729783396589367,0.37729783396589367,-0.017225737672923836,0.5149773805024348,-1.8017761666095808,-1.17545754647802,-0.25977585909335954,-0.25977585909335954,-0.023837405086432648,-0.08268409748383565
168,0.15999999999999773,0.3866666666666612,0.6266666666666577,0.07999999999999886,0.23999999999999658,0.3066666666666623,0.3066666666666623,0.4933333333333263,0.7066666666666566,0.0789473684210521,0.14473684210526222,0.13253993558502744,-0.665842824224291,0.10731081674826236,-1.360367075758599,-0.9850898382385702,-0.9850898382385702,0.6010225525339918,-0.20071544688594883,-0.249992052697104,0.37527723752002873,0.37527723752002873,0.008790048184549626,0.6098126007185415,-1.961389628292591,-1.1962153371706306,0.00774846661515037,0.00774846661515037,-0.024681602710242456,-0.3667492200214567
169,0.1621621621621625,0.36486486486486563,0.6081081081081093,0.06756756756756771,0.22972972972973024,0.2972972972972979,0.2972972972972979,0.48648648648648746,0.7297297297297313,0.0945945945945948,0.1351351351351354,0.13487035725737037,-0.6718288299488446,0.0924834361174588,-1.4007472720274108,-1.028098293554108,-1.028098293554108,0.6134542685102659,-0.18513304234949257,-0.2603134213053272,0.3726489784733028,0.3726489784733028,0.04199504657053937,0.6554493150808052,-2.0142015405376767,-1.1957453076360882,0.10148611880924041,0.10148611880924041,-0.0293131808377051,-0.28706598105167225
170,0.14864864864864896,0.3783783783783792,0.6081081081081093,0.06756756756756771,0.22972972972973024,0.2972972972972979,0.2972972972972979,0.472972972972974,0.7567567567567584,0.08108108108108124,0.14864864864864896,0.13891386208436304,-0.6503980172479799,0.05840949464143926,-1.2111292621562009,-0.8525246098899616,-0.8525246098899616,0.5165623416542141,-0.1434773226690379,-0.23480772591791946,0.3586046522662393,0.3586046522662393,-0.02264238403049182,0.49391995762372226,-1.7276916038104149,-1.1752375011305427,0.006204644276983062,0.006204644276983062,-0.024996398887214832,-0.23620942640406628
171,0.14666666666666806,0.3733333333333369,0.6133333333333392,0.053333333333333836,0.22666666666666882,0.2933333333333361,0.2933333333333361,0.48000000000000453,0.7466666666666738,0.09459459459459478,0.14864864864864896,0.13329816235268793,-0.6672819055344927,0.046794798246396825,-1.3396924759103221,-0.9462938553809448,-0.9462938553809448,0.5954816343816629,-0.17396155939439079,-0.25300543567236683,0.3933986205293774,0.3933986205293774,-0.042586399530095485,0.5528952348515673,-1.935174110291985,-1.1934768233832094,0.18317135990152214,0.18317135990152214,-0.026515557938301623,-0.2584944137665285
172,0.15999999999999773,0.3866666666666612,0.6133333333333246,0.06666666666666572,0.23999999999999658,0.31999999999999545,0.31999999999999545,0.4933333333333263,0.6933333333333235,0.09210526315789412,0.14473684210526222,0.13274537304164855,-0.665409272549594,0.06576265586597699,-1.3472274492300726,-0.853677562936219,-0.853677562936219,0.6153129077095179,-0.14976581224472899,-0.22983074623575422,0.49354988629385377,0.49354988629385377,-0.2551852310671527,0.36012767664236517,-1.9625403569395905,-1.123382786524108,-0.400299696223907,-0.400299696223907,-0.02832296232127195,-0.04771203208828745
173,0.1621621621621625,0.3783783783783792,0.6216216216216229,0.06756756756756771,0.24324324324324373,0.31081081081081147,0.31081081081081147,0.472972972972974,0.7297297297297313,0.0945945945945948,0.13513513513513545,0.1319033917718879,-0.7034029376986737,0.07278161182601713,-1.4672506892381885,-0.9691711703432495,-0.9691711703432495,0.6002418348233011,-0.1959695775619867,-0.2672846436875652,0.49807951889493896,0.49807951889493896,-0.12915018337499054,0.47109165144831056,-2.0674925240614894,-1.1614882071893138,0.15785433727269058,0.15785433727269058,-0.03165610275100138,-0.24589246329205583
174,0.14864864864864896,0.3783783783783792,0.6081081081081093,0.06756756756756771,0.22972972972973024,0.2972972972972979,0.2972972972972979,0.472972972972974,0.7162162162162177,0.08108108108108124,0.14864864864864896,0.1371675961681377,-0.6597119497757852,0.07195974918097658,-1.244653188589878,-0.9040908374519201,-0.9040908374519201,0.5527915570773525,-0.16644245515123107,-0.23509475377485967,0.3405623511379578,0.3405623511379578,0.010736929236609818,0.5635284863139622,-1.7974447456672302,-1.1816044643572217,-0.2022247245332472,-0.2022247245332472,-0.0274794125628502,-0.06356810893921683
175,0.14864864864864896,0.3918918918918927,0.6351351351351365,0.05405405405405417,0.21621621621621667,0.324324324324325,0.324324324324325,0.48648648648648746,0.7432432432432449,0.09589041095890358,0.17808219178082096,0.1326016060017014,-0.654739864503277,0.03508339569856845,-1.120173765717552,-0.626200133395389,-0.626200133395389,0.5058575772816785,-0.1790782486936999,0.8839669069990784,0.4939736323221629,0.4939736323221629,-0.3736310762084523,0.13222650107322623,-1.6260313429992306,-0.11492808802482149,-0.09307169004354338,-0.09307169004354338,-0.024535169428696945,-0.0242240361394902
176,0.16666666666666446,0.37499999999999506,0.5972222222222143,0.06944444444444353,0.24999999999999667,0.33333333333332893,0.33333333333332893,0.472222222222216,0.6805555555555466,0.09589041095890592,0.12328767123287905,0.1386546738087083,-0.6714284017607169,0.05200327257243695,-1.4467861291956363,-0.9008183403741494,-0.9008183403741494,0.6468124193523621,-0.1433304605028182,-0.1739907398260604,0.545967788821487,0.545967788821487,-0.2919618677996996,0.3548505515526625,-2.0935985485479987,-1.0328382585055582,-0.9281751887156081,-0.9281751887156081,-0.0300950925796655,-0.10096481406708635
177,0.16000000000000153,0.3733333333333369,0.6000000000000056,0.0666666666666673,0.24000000000000227,0.3066666666666696,0.3066666666666696,0.48000000000000453,0.7066666666666733,0.093333333333332,0.13333333333333147,0.13313624763333187,-0.6871626259587503,0.07764846912049865,-1.411060245542674,-0.9940329211102933,-0.9940329211102933,0.6521180714272968,-0.17135627459559796,-0.23149796957781604,0.4170273244323806,0.4170273244323806,-0.07511247474938411,0.5770055966779127,-2.0631783169699704,-1.1539135784470087,-0.045221493076684244,-0.045221493076684244,-0.027822063235555392,-0.37295382139203415
178,0.14864864864864896,0.3783783783783792,0.6081081081081093,0.06756756756756771,0.22972972972973024,0.2972972972972979,0.2972972972972979,0.472972972972974,0.7432432432432449,0.08108108108108124,0.14864864864864896,0.13730611920535188,-0.6717763877648464,0.04753519550737044,-1.2431044695071103,-0.9419511441165738,-0.9419511441165738,0.5525333204046232,-0.1519416617092649,-0.2671768840676236,0.3011533253905366,0.3011533253905366,0.08826449832141392,0.6407978187260371,-1.7956377899117335,-1.217665449687441,0.04248566000398835,0.04248566000398835,-0.025547414084961688,-0.2602127891534457
179,0.14666666666666806,0.3866666666666703,0.6000000000000056,0.053333333333333836,0.21333333333333535,0.33333333333333653,0.33333333333333653,0.48000000000000453,0.7466666666666738,0.09333333333333421,0.17333333333333498,0.13416534083465823,-0.6469580624703929,0.03432995955040415,-1.1681719567839797,-0.5270235100216882,-0.5270235100216882,0.5877646564391499,-0.117420201634579,0.8196408059641155,0.6411484467622913,0.6411484467622913,-0.701889593179753,-0.11412493674060308,-1.7559366132231295,-0.17865527188778826,0.054472219628542234,0.054472219628542234,-0.02531173636018498,-0.3244865735591119
180,0.14473684210526216,0.3815789473684185,0.6052631578947327,0.05263157894736807,0.2236842105263143,0.3421052631578924,0.3421052631578924,0.47368421052631254,0.736842105263153,0.09333333333333199,0.15999999999999773,0.1358082350760293,-0.6731153393664329,0.06279060179217665,-1.308101469483109,-0.4239091433787293,-0.4239091433787293,0.6154119733961874,-0.14682377254538878,0.7241434407502145,0.8841923261043796,0.8841923261043796,-1.0756951561218375,-0.46028318272565033,-1.9235134428792964,-0.2726075862508389,0.012415306261516885,0.012415306261516885,-0.026283240584428075,-0.1029932877280198
181,0.1578947368421042,0.3815789473684185,0.6184210526315748,0.06578947368421008,0.23684210526315627,0.30263157894736636,0.30263157894736636,0.47368421052631254,0.749999999999995,0.09210526315789627,0.1447368421052656,0.13053161764451118,-0.6739994285579204,0.0733447227927492,-1.343974848521747,-0.9712748303119454,-0.9712748303119454,0.5947443519676342,-0.17233274197830303,-0.21380407640728066,0.37270001820980164,0.37270001820980164,0.0038304601345095033,0.5985748121021437,-1.9387192004893812,-1.1565287080158224,-0.3333575022038943,-0.3333575022038943,-0.02770031609702917,-0.16846394263868858
182,0.1621621621621625,0.3783783783783792,0.6216216216216229,0.08108108108108125,0.24324324324324373,0.31081081081081147,0.31081081081081147,0.500000000000001,0.7162162162162177,0.07999999999999886,0.13333333333333147,0.1338712077078435,-0.6684537411674372,0.0755999439134063,-1.397771058614535,-0.9662871472535569,-0.9662871472535569,0.5970087826630686,-0.1734683218975013,-0.2747211911551618,0.4314839113609781,0.4314839113609781,-0.06220554677048968,0.5348032358925788,-1.9947798412776039,-1.200516779460575,0.00960862928102143,0.00960862928102143,-0.024643174205671275,-0.3301708615674376
183,0.14666666666666806,0.3733333333333369,0.6000000000000056,0.0666666666666673,0.22666666666666882,0.2933333333333361,0.2933333333333361,0.48000000000000453,0.7333333333333403,0.08108108108108124,0.14864864864864896,0.13549785687079233,-0.6549820757418903,0.052590606158573465,-1.2431879425548777,-0.8826341948630512,-0.8826341948630512,0.5585301058499077,-0.13708442111301966,-0.23703700778581088,0.3605537476918266,0.3605537476918266,-0.03644965867868308,0.5220804471712246,-1.8017180484047854,-1.182771728208553,-0.04669537274562808,-0.04669537274562808,-0.025515996783503057,-0.30265211697455696
184,0.15999999999999773,0.3866666666666612,0.6133333333333246,0.06666666666666572,0.22666666666666346,0.373333333333328,0.373333333333328,0.4933333333333263,0.7599999999999892,0.09333333333333423,0.16000000000000153,0.1324296143990795,-0.6467940242329557,0.034543674632694414,-1.2242668422174217,-0.24287733372250606,-0.24287733372250606,0.5538594028136427,-0.12664202839523878,0.6324731106059109,0.9813895084949157,0.9813895084949157,-1.2923715775860523,-0.7385121747724096,-1.7781262450310644,-0.36117716969586605,-0.04593934021362375,-0.04593934021362375,-0.026867411340418722,0.42768371696083374
